"type","name","time_units","begin_time","frequency","count","units"
"signal","","s",0.0000,2000.3556,75600,"uV"

"time","value"
0.0000,86.8956
0.0005,93.3047
0.0010,100.3242
0.0015,104.2917
0.0020,106.7332
0.0025,111.9215
0.0030,118.9410
0.0035,125.6553
0.0040,133.2852
0.0045,143.3566
0.0050,152.2072
0.0055,157.3955
0.0060,161.0578
0.0065,166.2462
0.0070,172.0448
0.0075,177.8435
0.0080,185.4734
0.0085,194.6292
0.0090,201.3435
0.0095,205.0058
0.0100,209.2786
0.0105,214.7721
0.0110,218.1292
0.0115,219.9604
0.0120,225.1487
0.0125,233.9993
0.0130,239.4928
0.0135,238.8824
0.0140,238.8824
0.0145,243.4603
0.0150,248.0383
0.0155,249.2590
0.0160,252.0058
0.0165,257.8045
0.0170,262.0772
0.0175,260.5512
0.0180,258.4149
0.0185,259.6356
0.0190,262.0772
0.0195,262.9928
0.0200,264.8239
0.0205,268.7915
0.0210,270.3174
0.0215,267.2655
0.0220,264.8239
0.0225,265.7395
0.0230,266.6551
0.0235,264.5187
0.0240,264.2136
0.0245,268.4863
0.0250,272.1486
0.0255,268.7915
0.0260,260.8564
0.0265,254.4473
0.0270,250.7850
0.0275,246.2071
0.0280,241.3240
0.0285,236.7461
0.0290,230.9474
0.0295,223.3175
0.0300,214.7721
0.0305,206.5318
0.0310,196.7656
0.0315,186.6942
0.0320,179.0643
0.0325,172.9604
0.0330,164.4150
0.0335,151.5968
0.0340,139.3890
0.0345,130.5384
0.0350,121.6878
0.0355,111.0060
0.0360,101.5449
0.0365,94.5255
0.0370,85.3696
0.0375,71.9411
0.0380,58.8177
0.0385,49.6619
0.0390,41.4216
0.0395,31.3502
0.0400,21.8892
0.0405,13.9541
0.0410,4.1879
0.0415,-8.0199
0.0420,-18.7017
0.0425,-24.8055
0.0430,-31.2146
0.0435,-39.7601
0.0440,-45.8640
0.0445,-48.0003
0.0450,-51.0523
0.0455,-59.9029
0.0460,-68.7535
0.0465,-73.0263
0.0470,-75.1626
0.0475,-79.1302
0.0480,-82.1821
0.0485,-82.1821
0.0490,-83.4029
0.0495,-88.2860
0.0500,-92.2535
0.0505,-91.3379
0.0510,-90.7275
0.0515,-93.4743
0.0520,-94.3899
0.0525,-89.2016
0.0530,-85.5392
0.0535,-90.4223
0.0540,-95.9158
0.0545,-89.5068
0.0550,-75.1626
0.0555,-68.4483
0.0560,-75.7730
0.0565,-86.7600
0.0570,-91.0327
0.0575,-90.7275
0.0580,-91.6431
0.0585,-94.0847
0.0590,-95.0003
0.0595,-94.3899
0.0600,-94.0847
0.0605,-95.6107
0.0610,-98.3574
0.0615,-101.1042
0.0620,-102.9353
0.0625,-104.4613
0.0630,-105.3769
0.0635,-105.9873
0.0640,-105.6821
0.0645,-104.7665
0.0650,-104.7665
0.0655,-105.9873
0.0660,-109.3444
0.0665,-113.3119
0.0670,-115.7535
0.0675,-114.8379
0.0680,-111.1756
0.0685,-108.1236
0.0690,-107.5132
0.0695,-107.5132
0.0700,-106.5976
0.0705,-105.6821
0.0710,-105.3769
0.0715,-103.2405
0.0720,-98.6626
0.0725,-96.2210
0.0730,-99.2730
0.0735,-104.1561
0.0740,-105.3769
0.0745,-104.4613
0.0750,-104.1561
0.0755,-103.5457
0.0760,-100.7990
0.0765,-98.9678
0.0770,-102.6301
0.0775,-108.1236
0.0780,-109.3444
0.0785,-108.1236
0.0790,-109.6496
0.0795,-113.3119
0.0800,-115.1431
0.0805,-116.3639
0.0810,-120.6366
0.0815,-127.3509
0.0820,-132.2340
0.0825,-135.8963
0.0830,-142.3054
0.0835,-148.4093
0.0840,-149.3249
0.0845,-147.4937
0.0850,-149.3249
0.0855,-156.3443
0.0860,-162.7534
0.0865,-165.5002
0.0870,-166.4158
0.0875,-167.3313
0.0880,-166.7209
0.0885,-165.5002
0.0890,-166.1106
0.0895,-168.5521
0.0900,-170.0781
0.0905,-169.4677
0.0910,-167.9417
0.0915,-166.4158
0.0920,-163.9742
0.0925,-162.4482
0.0930,-164.5846
0.0935,-167.6365
0.0940,-168.8573
0.0945,-168.2469
0.0950,-166.7209
0.0955,-163.9742
0.0960,-159.0911
0.0965,-154.5132
0.0970,-153.9028
0.0975,-155.1236
0.0980,-153.5976
0.0985,-148.7145
0.0990,-142.6106
0.0995,-135.2859
0.1000,-125.5197
0.1005,-117.2795
0.1010,-114.8379
0.1015,-116.9743
0.1020,-118.8054
0.1025,-119.7210
0.1030,-123.3833
0.1035,-129.4872
0.1040,-135.5911
0.1045,-141.3898
0.1050,-149.9353
0.1055,-163.0586
0.1060,-177.4028
0.1065,-190.8313
0.1070,-203.6495
0.1075,-215.2469
0.1080,-224.0975
0.1085,-232.6429
0.1090,-243.9351
0.1095,-256.4481
0.1100,-265.2987
0.1105,-270.4870
0.1110,-276.5909
0.1115,-284.5260
0.1120,-288.7987
0.1125,-290.0195
0.1130,-294.5974
0.1135,-303.7532
0.1140,-309.5519
0.1145,-309.2467
0.1150,-309.8571
0.1155,-314.4350
0.1160,-315.6558
0.1165,-310.7727
0.1170,-309.8571
0.1175,-317.7922
0.1180,-322.0649
0.1185,-310.7727
0.1190,-295.2078
0.1195,-293.9870
0.1200,-306.5000
0.1205,-315.3506
0.1210,-313.2143
0.1215,-308.6363
0.1220,-308.6363
0.1225,-308.0260
0.1230,-304.6688
0.1235,-301.9221
0.1240,-300.3961
0.1245,-296.1234
0.1250,-288.7987
0.1255,-284.5260
0.1260,-284.8312
0.1265,-284.8312
0.1270,-281.7792
0.1275,-278.4221
0.1280,-274.7598
0.1285,-268.3507
0.1290,-261.0260
0.1295,-255.8377
0.1300,-250.6494
0.1305,-242.7144
0.1310,-233.2533
0.1315,-225.9287
0.1320,-217.9936
0.1325,-204.5651
0.1330,-189.3053
0.1335,-177.7079
0.1340,-168.8573
0.1345,-156.3443
0.1350,-139.5586
0.1355,-123.0781
0.1360,-107.5132
0.1365,-89.8120
0.1370,-70.8899
0.1375,-54.1042
0.1380,-38.8445
0.1385,-21.1432
0.1390,-3.1367
0.1395,13.0386
0.1400,29.5191
0.1405,49.3567
0.1410,69.1943
0.1415,84.4540
0.1420,96.6618
0.1425,110.0904
0.1430,123.8241
0.1435,135.4215
0.1440,146.4085
0.1445,160.4475
0.1450,173.8760
0.1455,182.1163
0.1460,186.3890
0.1465,190.9669
0.1470,196.4604
0.1475,200.4279
0.1480,205.6162
0.1485,212.9409
0.1490,217.8240
0.1495,217.5188
0.1500,215.6876
0.1505,215.9928
0.1510,216.9084
0.1515,215.9928
0.1520,215.6876
0.1525,218.4344
0.1530,219.9604
0.1535,216.9084
0.1540,212.6357
0.1545,211.4149
0.1550,210.4993
0.1555,207.7526
0.1560,205.3110
0.1565,205.9214
0.1570,205.3110
0.1575,200.4279
0.1580,194.9344
0.1585,192.7981
0.1590,190.9669
0.1595,186.6942
0.1600,183.0318
0.1605,183.3370
0.1610,182.4215
0.1615,176.0124
0.1620,168.3825
0.1625,164.1098
0.1630,161.6682
0.1635,156.7851
0.1640,153.1228
0.1645,153.7332
0.1650,154.3436
0.1655,148.8501
0.1660,139.9994
0.1665,133.8955
0.1670,130.8436
0.1675,128.4020
0.1680,126.5709
0.1685,125.9605
0.1690,124.4345
0.1695,120.7722
0.1700,117.7202
0.1705,116.1943
0.1710,113.4475
0.1715,109.1748
0.1720,107.9540
0.1725,110.3956
0.1730,110.7008
0.1735,106.7332
0.1740,103.3761
0.1745,103.3761
0.1750,103.3761
0.1755,101.8501
0.1760,102.4605
0.1765,105.2073
0.1770,105.5125
0.1775,102.4605
0.1780,101.5449
0.1785,103.0709
0.1790,102.7657
0.1795,101.2397
0.1800,104.5969
0.1805,111.3112
0.1810,112.8371
0.1815,109.1748
0.1820,110.0904
0.1825,116.1943
0.1830,117.4150
0.1835,114.9735
0.1840,122.6034
0.1845,141.8306
0.1850,153.7332
0.1855,146.4085
0.1860,132.6748
0.1865,129.9280
0.1870,136.3371
0.1875,140.6098
0.1880,142.1358
0.1885,147.0189
0.1890,153.1228
0.1895,154.6488
0.1900,153.4280
0.1905,155.2592
0.1910,158.9215
0.1915,160.7527
0.1920,162.2786
0.1925,166.2462
0.1930,169.2981
0.1935,168.0773
0.1940,166.8565
0.1945,168.3825
0.1950,169.9085
0.1955,170.2137
0.1960,172.3500
0.1965,177.5383
0.1970,180.2851
0.1975,176.9280
0.1980,172.9604
0.1985,172.9604
0.1990,174.7916
0.1995,175.0968
0.2000,176.3176
0.2005,179.9799
0.2010,181.5059
0.2015,179.6747
0.2020,178.1487
0.2025,179.9799
0.2030,181.2007
0.2035,179.9799
0.2040,180.5903
0.2045,183.9474
0.2050,185.4734
0.2055,181.8111
0.2060,177.5383
0.2065,176.0124
0.2070,175.4020
0.2075,174.1812
0.2080,175.4020
0.2085,177.8435
0.2090,176.3176
0.2095,169.9085
0.2100,165.3306
0.2105,164.7202
0.2110,163.4994
0.2115,159.5319
0.2120,158.0059
0.2125,160.7527
0.2130,161.0578
0.2135,155.8695
0.2140,150.6812
0.2145,149.4605
0.2150,148.8501
0.2155,146.1033
0.2160,145.1877
0.2165,148.5449
0.2170,151.5968
0.2175,149.1553
0.2180,144.5773
0.2185,142.4410
0.2190,142.1358
0.2195,140.9150
0.2200,140.6098
0.2205,140.6098
0.2210,138.7787
0.2215,133.5903
0.2220,129.0124
0.2225,127.4865
0.2230,125.9605
0.2235,123.5189
0.2240,122.6034
0.2245,123.5189
0.2250,121.9930
0.2255,115.8891
0.2260,108.8696
0.2265,104.5969
0.2270,101.2397
0.2275,96.9670
0.2280,94.5255
0.2285,93.3047
0.2290,90.5579
0.2295,84.1489
0.2300,77.4346
0.2305,72.5515
0.2310,67.6684
0.2315,61.8697
0.2320,56.6814
0.2325,52.1034
0.2330,45.3892
0.2335,35.9281
0.2340,27.6879
0.2345,22.1944
0.2350,16.0905
0.2355,8.4606
0.2360,2.9671
0.2365,-0.3900
0.2370,-5.5783
0.2375,-14.1237
0.2380,-22.0588
0.2385,-27.5523
0.2390,-32.7406
0.2395,-38.8445
0.2400,-42.8120
0.2405,-45.2536
0.2410,-50.7471
0.2415,-60.2081
0.2420,-68.1432
0.2425,-72.1107
0.2430,-76.6886
0.2435,-84.0133
0.2440,-88.2860
0.2445,-88.5912
0.2450,-91.9483
0.2455,-102.9353
0.2460,-111.7860
0.2465,-108.4288
0.2470,-100.4938
0.2475,-102.6301
0.2480,-116.6691
0.2485,-130.0976
0.2490,-134.3703
0.2495,-133.7600
0.2500,-135.8963
0.2505,-140.7794
0.2510,-144.1366
0.2515,-144.4418
0.2520,-143.8314
0.2525,-144.7470
0.2530,-146.8833
0.2535,-149.6301
0.2540,-151.7664
0.2545,-153.2924
0.2550,-154.2080
0.2555,-153.9028
0.2560,-152.0716
0.2565,-151.1560
0.2570,-152.9872
0.2575,-155.7339
0.2580,-156.9547
0.2585,-156.9547
0.2590,-157.5651
0.2595,-157.5651
0.2600,-155.1236
0.2605,-153.5976
0.2610,-155.4288
0.2615,-158.7859
0.2620,-159.0911
0.2625,-156.9547
0.2630,-156.9547
0.2635,-157.2599
0.2640,-154.8184
0.2645,-149.3249
0.2650,-146.2729
0.2655,-147.1885
0.2660,-148.7145
0.2665,-149.0197
0.2670,-148.4093
0.2675,-146.2729
0.2680,-141.6950
0.2685,-137.4223
0.2690,-136.8119
0.2695,-137.4223
0.2700,-135.2859
0.2705,-131.9288
0.2710,-130.7080
0.2715,-129.4872
0.2720,-125.2145
0.2725,-120.3314
0.2730,-119.1106
0.2735,-120.3314
0.2740,-118.5002
0.2745,-114.8379
0.2750,-113.9223
0.2755,-113.9223
0.2760,-109.9548
0.2765,-105.0717
0.2770,-104.1561
0.2775,-106.2925
0.2780,-105.9873
0.2785,-103.2405
0.2790,-102.0197
0.2795,-101.7145
0.2800,-98.0522
0.2805,-92.8639
0.2810,-91.3379
0.2814,-93.1691
0.2819,-92.8639
0.2824,-88.8964
0.2829,-85.5392
0.2834,-83.7081
0.2839,-80.0457
0.2844,-74.8574
0.2849,-73.0263
0.2854,-74.2470
0.2859,-74.8574
0.2864,-73.0263
0.2869,-71.5003
0.2874,-70.2795
0.2879,-67.5328
0.2884,-63.8704
0.2889,-61.7341
0.2894,-61.7341
0.2899,-61.1237
0.2904,-60.2081
0.2909,-58.9873
0.2914,-57.4614
0.2919,-54.1042
0.2924,-51.6627
0.2929,-52.2730
0.2934,-53.7990
0.2939,-52.2730
0.2944,-49.8315
0.2949,-49.5263
0.2954,-50.1367
0.2959,-47.6951
0.2964,-44.0328
0.2969,-43.4224
0.2974,-45.2536
0.2979,-44.6432
0.2984,-41.5912
0.2989,-39.4549
0.2994,-38.5393
0.2999,-35.7925
0.3004,-31.2146
0.3009,-29.0783
0.3014,-29.6887
0.3019,-29.0783
0.3024,-25.4159
0.3029,-22.6692
0.3034,-22.3640
0.3039,-19.3120
0.3044,-12.2926
0.3049,-7.7147
0.3054,-9.5458
0.3059,-12.2926
0.3064,-9.5458
0.3069,-5.5783
0.3074,-5.8835
0.3079,-7.1043
0.3084,-1.9160
0.3089,5.1035
0.3094,5.7139
0.3099,2.0516
0.3104,2.9671
0.3109,8.7658
0.3114,9.6814
0.3119,6.0191
0.3124,9.9866
0.3129,25.8567
0.3134,39.5905
0.3139,36.2333
0.3144,20.9736
0.3149,10.2918
0.3154,11.8178
0.3159,18.8373
0.3164,24.0256
0.3169,24.9411
0.3174,24.9411
0.3179,25.5515
0.3184,27.3827
0.3189,29.2139
0.3194,30.1294
0.3199,32.8762
0.3204,38.3697
0.3209,43.2528
0.3214,43.5580
0.3219,41.1164
0.3224,40.8112
0.3229,43.5580
0.3234,45.6944
0.3239,47.2203
0.3244,50.5775
0.3249,55.1554
0.3254,56.3762
0.3259,53.6294
0.3264,50.5775
0.3269,50.8827
0.3274,52.1034
0.3279,53.9346
0.3284,56.0710
0.3289,57.5969
0.3294,57.2917
0.3299,56.6814
0.3304,57.2917
0.3309,58.2073
0.3314,57.9021
0.3319,58.8177
0.3324,62.4801
0.3329,67.3632
0.3334,68.8891
0.3339,67.6684
0.3344,67.0580
0.3349,68.2787
0.3354,70.4151
0.3359,74.6878
0.3364,80.1813
0.3369,83.5385
0.3374,83.2333
0.3379,82.9281
0.3384,85.3696
0.3389,87.8112
0.3394,89.0320
0.3399,91.7787
0.3404,96.9670
0.3409,99.7138
0.3414,98.1878
0.3419,96.9670
0.3424,99.4086
0.3429,101.8501
0.3434,100.9345
0.3439,101.2397
0.3444,106.4280
0.3449,111.0060
0.3454,109.7852
0.3459,105.8177
0.3464,104.2917
0.3469,104.9021
0.3474,105.2073
0.3479,107.3436
0.3484,111.0060
0.3489,112.2267
0.3494,110.7008
0.3499,111.0060
0.3504,113.1423
0.3509,111.6164
0.3514,107.6488
0.3519,109.1748
0.3524,115.2787
0.3529,116.1943
0.3534,111.0060
0.3539,110.7008
0.3544,114.9735
0.3549,110.7008
0.3554,103.3761
0.3559,129.6228
0.3564,214.7721
0.3569,340.5122
0.3574,469.3042
0.3579,588.0248
0.3584,711.0182
0.3589,850.7972
0.3594,1003.3944
0.3599,1150.4981
0.3604,1265.5564
0.3609,1329.3420
0.3614,1350.7056
0.3619,1357.1147
0.3624,1358.6407
0.3629,1341.2446
0.3634,1305.2317
0.3639,1273.1863
0.3644,1254.5694
0.3649,1227.4071
0.3654,1184.0695
0.3659,1152.3293
0.3664,1148.3618
0.3669,1141.3423
0.3674,1097.6995
0.3679,1032.9983
0.3684,977.7581
0.3689,917.0244
0.3694,815.0895
0.3699,681.4143
0.3704,565.4404
0.3709,483.3431
0.3714,398.8043
0.3719,280.0837
0.3724,142.1358
0.3729,15.7853
0.3734,-91.6431
0.3739,-197.8508
0.3744,-313.5195
0.3749,-431.0193
0.3754,-530.2075
0.3759,-596.4347
0.3764,-634.5840
0.3769,-667.5450
0.3774,-713.0189
0.3779,-770.7007
0.3784,-832.9603
0.3789,-897.0512
0.3794,-962.0576
0.3799,-1024.0120
0.3804,-1081.3886
0.3809,-1131.7457
0.3814,-1168.9794
0.3819,-1189.7326
0.3824,-1207.4339
0.3829,-1240.3949
0.3834,-1285.8688
0.3839,-1325.8493
0.3844,-1359.4207
0.3849,-1403.0635
0.3854,-1453.1154
0.3859,-1476.9205
0.3864,-1461.0504
0.3869,-1435.7193
0.3874,-1436.6349
0.3879,-1460.7452
0.3884,-1482.7192
0.3889,-1495.2322
0.3894,-1506.5244
0.3899,-1515.0698
0.3904,-1512.6283
0.3909,-1504.3880
0.3914,-1506.5244
0.3919,-1520.2581
0.3924,-1531.8555
0.3929,-1533.0763
0.3934,-1527.2776
0.3939,-1517.2062
0.3944,-1500.7257
0.3949,-1479.0569
0.3954,-1455.8621
0.3959,-1432.0570
0.3964,-1404.5895
0.3969,-1371.9337
0.3974,-1332.5636
0.3979,-1285.2585
0.3984,-1232.7650
0.3989,-1179.9664
0.3994,-1129.6093
0.3999,-1084.4405
0.4004,-1048.1224
0.4009,-1019.7393
0.4014,-988.6095
0.4019,-949.2394
0.4024,-916.5836
0.4029,-904.3758
0.4034,-898.2719
0.4039,-874.7720
0.4044,-843.0318
0.4049,-832.0448
0.4054,-834.7915
0.4059,-809.1552
0.4064,-744.4540
0.4069,-684.3307
0.4074,-659.3047
0.4079,-642.8242
0.4084,-603.4541
0.4089,-564.0841
0.4094,-558.5906
0.4099,-563.1685
0.4104,-526.5452
0.4109,-450.2466
0.4114,-386.7661
0.4119,-360.5194
0.4124,-338.2402
0.4129,-291.2403
0.4134,-233.2533
0.4139,-188.6949
0.4144,-154.2080
0.4149,-115.7535
0.4154,-75.7730
0.4159,-41.5912
0.4164,-7.4095
0.4169,35.6229
0.4174,84.7592
0.4179,129.3176
0.4184,168.6877
0.4189,207.4474
0.4194,245.2915
0.4199,276.7265
0.4204,302.6681
0.4209,330.1355
0.4214,363.7069
0.4219,399.7199
0.4224,431.4601
0.4229,457.4016
0.4234,481.5120
0.4239,503.4860
0.4244,515.0834
0.4249,514.4730
0.4254,522.1028
0.4259,560.2521
0.4264,623.7326
0.4269,679.5831
0.4274,707.9662
0.4279,721.7000
0.4284,738.7909
0.4289,758.3233
0.4294,770.8363
0.4299,779.3817
0.4304,791.5895
0.4309,802.8817
0.4314,803.1869
0.4319,797.3882
0.4324,797.0830
0.4329,804.1025
0.4334,811.4271
0.4339,816.6154
0.4344,819.9726
0.4349,816.9206
0.4354,805.6284
0.4359,792.8103
0.4364,784.8752
0.4369,779.3817
0.4374,774.8038
0.4379,776.3298
0.4384,783.6544
0.4389,783.3492
0.4394,767.1739
0.4399,748.2519
0.4404,747.0311
0.4409,766.2584
0.4414,789.4531
0.4419,800.7453
0.4424,798.3038
0.4429,788.5375
0.4434,780.6025
0.4439,777.5505
0.4444,771.1415
0.4449,754.3558
0.4454,735.4337
0.4459,733.2974
0.4464,750.3882
0.4469,762.5960
0.4474,749.7779
0.4479,721.3948
0.4484,701.5571
0.4489,696.9792
0.4494,693.3169
0.4499,680.8039
0.4504,666.4598
0.4509,661.5767
0.4514,663.7130
0.4519,659.4403
0.4524,646.0118
0.4529,636.5507
0.4534,643.8754
0.4539,657.3040
0.4544,656.6936
0.4549,646.6221
0.4554,663.1026
0.4559,730.2454
0.4564,829.7388
0.4569,923.7387
0.4574,999.4269
0.4579,1069.3164
0.4584,1140.1215
0.4589,1203.6019
0.4594,1256.0954
0.4599,1304.0109
0.4604,1350.0953
0.4609,1387.9394
0.4614,1415.4069
0.4619,1439.5172
0.4624,1462.7120
0.4629,1480.7185
0.4634,1492.9262
0.4639,1502.6925
0.4644,1510.6275
0.4649,1512.1535
0.4654,1506.6600
0.4659,1498.1145
0.4664,1488.6535
0.4669,1476.1405
0.4674,1461.4912
0.4679,1446.2315
0.4684,1428.5302
0.4689,1405.0303
0.4694,1377.5628
0.4699,1350.7056
0.4704,1323.5433
0.4709,1292.7187
0.4714,1259.4525
0.4719,1227.7123
0.4724,1195.0565
0.4729,1158.4332
0.4734,1117.8423
0.4739,1077.5567
0.4744,1038.1866
0.4749,997.9009
0.4754,957.3101
0.4759,917.9400
0.4764,876.1283
0.4769,829.7388
0.4774,782.4337
0.4779,738.1805
0.4784,695.1481
0.4789,649.6741
0.4794,603.2845
0.4799,560.2521
0.4804,519.0509
0.4809,474.7977
0.4814,427.1874
0.4819,380.7978
0.4824,337.1550
0.4829,293.2070
0.4834,249.2590
0.4839,207.7526
0.4844,168.0773
0.4849,126.5709
0.4854,82.0125
0.4859,37.7593
0.4864,-3.7471
0.4869,-44.9484
0.4874,-84.6237
0.4879,-121.8574
0.4884,-158.4807
0.4889,-197.5456
0.4894,-237.8312
0.4899,-275.0650
0.4904,-309.8571
0.4909,-346.4805
0.4914,-383.4090
0.4919,-415.7596
0.4924,-445.0582
0.4929,-478.6296
0.4934,-515.8634
0.4939,-549.1295
0.4944,-576.5970
0.4949,-604.6749
0.4954,-636.1099
0.4959,-663.2722
0.4964,-684.6359
0.4969,-708.1358
0.4974,-738.0449
0.4979,-766.4280
0.4984,-788.0968
0.4989,-810.0708
0.4994,-836.6227
0.4999,-858.9019
0.5004,-872.3304
0.5009,-888.2005
0.5014,-914.7524
0.5019,-939.1680
0.5024,-947.1030
0.5029,-947.7134
0.5034,-962.9732
0.5039,-992.2718
0.5044,-1014.8562
0.5049,-1022.7913
0.5054,-1028.8952
0.5059,-1043.8497
0.5064,-1061.2458
0.5069,-1072.2328
0.5074,-1078.9470
0.5079,-1085.0509
0.5084,-1090.8496
0.5089,-1096.0379
0.5094,-1102.4470
0.5099,-1109.1613
0.5104,-1114.0444
0.5109,-1117.0963
0.5114,-1120.1483
0.5119,-1121.3691
0.5124,-1119.2327
0.5129,-1118.3171
0.5134,-1121.9794
0.5139,-1126.5574
0.5144,-1126.2522
0.5149,-1122.8950
0.5154,-1121.0639
0.5159,-1119.2327
0.5164,-1113.1288
0.5169,-1107.0249
0.5174,-1105.1938
0.5179,-1104.5834
0.5184,-1100.0054
0.5189,-1092.3756
0.5194,-1086.8821
0.5199,-1081.6938
0.5204,-1072.5380
0.5209,-1062.4665
0.5214,-1056.9730
0.5219,-1053.3107
0.5224,-1045.9860
0.5229,-1036.5250
0.5234,-1027.9796
0.5239,-1018.8237
0.5244,-1005.3952
0.5249,-991.6614
0.5254,-982.8108
0.5259,-976.4017
0.5264,-966.9407
0.5269,-955.3433
0.5274,-943.7459
0.5279,-931.2329
0.5284,-915.3628
0.5289,-899.1875
0.5294,-887.5901
0.5299,-877.2135
0.5304,-864.7006
0.5309,-851.2720
0.5314,-838.4538
0.5319,-823.1941
0.5324,-803.9669
0.5329,-785.9604
0.5334,-773.4474
0.5339,-762.4604
0.5344,-747.8111
0.5349,-730.1098
0.5354,-713.6293
0.5359,-697.4540
0.5364,-679.4476
0.5369,-661.1359
0.5374,-645.8762
0.5379,-630.9216
0.5384,-614.4411
0.5389,-597.6555
0.5394,-581.4801
0.5399,-563.4737
0.5404,-543.0257
0.5409,-524.4088
0.5414,-509.4543
0.5419,-494.8049
0.5424,-478.0192
0.5429,-460.9284
0.5434,-445.0582
0.5439,-427.3570
0.5444,-406.6038
0.5449,-387.0713
0.5454,-371.8116
0.5459,-357.7726
0.5464,-342.8181
0.5469,-327.2532
0.5474,-311.9935
0.5479,-294.2922
0.5484,-274.4546
0.5489,-257.0585
0.5494,-243.0196
0.5499,-227.4546
0.5504,-210.0586
0.5509,-194.4936
0.5514,-180.7599
0.5519,-163.9742
0.5524,-144.1366
0.5529,-127.3509
0.5534,-115.7535
0.5539,-102.9353
0.5544,-86.7600
0.5549,-71.8055
0.5554,-59.9029
0.5559,-45.2536
0.5564,-27.2471
0.5569,-12.5978
0.5574,-3.7471
0.5579,6.3243
0.5584,20.9736
0.5589,35.6229
0.5594,46.6099
0.5599,58.8177
0.5604,73.4671
0.5609,85.3696
0.5614,93.3047
0.5619,102.1553
0.5624,114.3631
0.5629,125.6553
0.5634,134.5059
0.5639,146.4085
0.5644,161.0578
0.5649,172.6552
0.5654,180.2851
0.5659,189.4409
0.5664,199.8175
0.5669,205.6162
0.5674,212.3305
0.5679,230.9474
0.5684,256.5837
0.5689,269.7071
0.5694,263.9084
0.5699,257.1941
0.5704,264.2136
0.5709,277.9473
0.5714,286.1876
0.5719,291.9862
0.5724,302.3629
0.5729,313.3499
0.5734,318.8434
0.5739,321.8953
0.5744,329.8304
0.5749,338.9862
0.5754,345.0901
0.5759,350.5836
0.5764,359.7394
0.5769,367.6745
0.5774,369.8108
0.5779,370.4212
0.5784,375.3043
0.5789,381.7134
0.5794,386.2913
0.5799,391.4796
0.5804,399.7199
0.5809,406.1290
0.5814,407.9601
0.5819,409.4861
0.5824,414.6744
0.5829,420.1679
0.5834,422.6095
0.5839,426.2718
0.5844,433.2913
0.5849,440.0055
0.5854,441.5315
0.5859,441.2263
0.5864,442.1419
0.5869,443.6679
0.5874,445.1938
0.5879,448.5510
0.5884,454.0445
0.5889,456.1808
0.5894,452.8237
0.5899,449.1614
0.5904,449.7718
0.5909,452.2133
0.5914,452.8237
0.5919,453.1289
0.5924,454.9601
0.5929,455.8756
0.5934,454.0445
0.5939,451.2977
0.5944,451.2977
0.5949,452.5185
0.5954,453.4341
0.5959,454.6549
0.5964,456.1808
0.5969,456.1808
0.5974,454.0445
0.5979,451.2977
0.5984,449.7718
0.5989,448.5510
0.5994,448.2458
0.5999,449.4666
0.6004,450.0769
0.6009,448.2458
0.6014,444.8886
0.6019,442.7523
0.6024,441.5315
0.6029,439.7003
0.6034,437.8692
0.6039,437.8692
0.6044,438.4796
0.6049,436.3432
0.6054,431.4601
0.6059,425.3562
0.6064,419.5575
0.6069,414.0640
0.6074,410.7069
0.6079,408.8757
0.6084,405.8238
0.6089,399.4147
0.6094,392.3952
0.6099,387.5121
0.6104,382.0186
0.6109,374.0835
0.6114,367.0641
0.6119,363.7069
0.6124,360.6550
0.6129,353.6355
0.6134,344.7849
0.6139,338.6810
0.6144,334.4083
0.6149,327.9992
0.6154,321.2849
0.6159,317.6226
0.6164,314.8758
0.6169,309.0771
0.6174,301.1421
0.6179,294.7330
0.6184,289.8499
0.6189,284.3564
0.6194,278.5577
0.6199,274.8954
0.6204,271.8434
0.6209,265.7395
0.6214,257.4993
0.6219,249.5642
0.6224,241.9344
0.6229,233.9993
0.6234,226.3694
0.6239,220.2656
0.6244,214.4669
0.6249,206.5318
0.6254,196.4604
0.6259,184.5578
0.6264,172.3500
0.6269,161.0578
0.6274,152.2072
0.6279,143.9670
0.6284,134.5059
0.6289,124.4345
0.6294,114.6683
0.6299,102.7657
0.6304,89.0320
0.6309,81.0969
0.6314,84.1489
0.6319,86.8956
0.6324,75.6034
0.6329,52.1034
0.6334,33.1814
0.6339,26.7723
0.6344,23.1100
0.6349,14.8697
0.6354,6.6295
0.6359,3.2723
0.6364,0.2204
0.6369,-8.6302
0.6374,-19.0069
0.6379,-25.7211
0.6384,-31.2146
0.6389,-39.1497
0.6394,-46.7795
0.6399,-50.1367
0.6404,-52.8834
0.6409,-59.5977
0.6414,-69.3639
0.6419,-77.2990
0.6424,-81.5717
0.6429,-84.9288
0.6434,-89.2016
0.6439,-92.5587
0.6444,-94.0847
0.6449,-95.3055
0.6454,-98.6626
0.6459,-104.1561
0.6464,-107.8184
0.6469,-108.4288
0.6474,-107.8184
0.6479,-109.9548
0.6484,-113.0067
0.6489,-112.0911
0.6494,-109.9548
0.6499,-113.9223
0.6504,-121.2470
0.6509,-120.3314
0.6514,-108.4288
0.6519,-100.7990
0.6524,-109.3444
0.6529,-123.9937
0.6534,-128.2665
0.6539,-121.5522
0.6544,-118.1950
0.6549,-120.6366
0.6554,-119.4158
0.6559,-111.7860
0.6564,-106.5976
0.6569,-108.4288
0.6574,-110.2600
0.6579,-108.4288
0.6584,-106.2925
0.6589,-106.5976
0.6594,-103.5457
0.6599,-95.6107
0.6604,-89.8120
0.6609,-90.1172
0.6614,-91.0327
0.6619,-87.3704
0.6624,-83.4029
0.6629,-83.0977
0.6634,-82.1821
0.6639,-74.5522
0.6644,-63.2600
0.6649,-54.7146
0.6654,-49.2211
0.6659,-44.0328
0.6664,-37.3185
0.6669,-28.7731
0.6674,-15.6497
0.6679,1.4412
0.6684,17.9217
0.6689,30.4346
0.6694,41.7268
0.6699,56.6814
0.6704,72.5515
0.6709,86.8956
0.6714,100.6294
0.6719,117.1099
0.6724,133.5903
0.6729,146.7137
0.6734,158.6163
0.6739,172.9604
0.6744,188.5253
0.6749,201.3435
0.6754,212.6357
0.6759,225.1487
0.6764,236.7461
0.6769,243.4603
0.6774,247.1227
0.6779,252.6162
0.6784,259.3304
0.6789,264.2136
0.6794,267.8759
0.6799,275.2006
0.6804,284.0512
0.6809,288.9343
0.6814,290.7655
0.6819,296.5642
0.6824,307.8564
0.6829,317.6226
0.6834,321.8953
0.6839,325.8628
0.6844,334.4083
0.6849,343.8693
0.6854,348.1420
0.6859,347.2264
0.6864,346.6160
0.6869,348.4472
0.6874,349.6680
0.6879,349.3628
0.6884,349.0576
0.6889,349.0576
0.6894,346.0057
0.6899,338.3758
0.6904,329.2200
0.6909,321.8953
0.6914,315.7914
0.6919,308.4667
0.6924,300.8369
0.6929,294.1226
0.6934,285.2720
0.6939,271.2330
0.6944,255.9733
0.6949,248.0383
0.6954,249.2590
0.6959,248.0383
0.6964,233.0837
0.6969,207.7526
0.6974,185.4734
0.6979,172.3500
0.6984,162.5838
0.6989,148.8501
0.6994,133.8955
0.6999,122.6034
0.7004,113.7527
0.7009,101.5449
0.7014,86.2852
0.7019,71.3307
0.7024,58.8177
0.7029,45.0840
0.7034,30.4346
0.7039,17.6165
0.7044,7.2399
0.7049,-4.0523
0.7054,-19.0069
0.7059,-35.7925
0.7064,-52.5782
0.7069,-68.7535
0.7074,-84.0133
0.7079,-96.5262
0.7084,-107.5132
0.7089,-122.1626
0.7094,-140.4742
0.7099,-157.8703
0.7104,-173.4352
0.7109,-190.2209
0.7114,-208.8378
0.7119,-225.3183
0.7124,-238.7468
0.7129,-254.9221
0.7134,-276.2857
0.7139,-297.0390
0.7144,-313.8247
0.7149,-329.3896
0.7154,-347.0908
0.7159,-364.1817
0.7164,-377.6103
0.7169,-391.0388
0.7174,-408.4349
0.7179,-426.4414
0.7184,-440.7855
0.7189,-453.9089
0.7194,-468.2530
0.7199,-481.0712
0.7204,-489.9218
0.7209,-499.3829
0.7214,-513.7270
0.7219,-528.9867
0.7224,-539.9737
0.7229,-548.5192
0.7234,-559.2010
0.7239,-568.6620
0.7244,-573.8503
0.7249,-577.8178
0.7254,-586.3633
0.7259,-598.2658
0.7264,-607.4217
0.7269,-613.5256
0.7274,-619.0191
0.7279,-623.5970
0.7284,-625.4281
0.7289,-626.0385
0.7294,-628.7853
0.7299,-632.1424
0.7304,-633.3632
0.7309,-634.5840
0.7314,-636.4151
0.7319,-637.0255
0.7324,-633.6684
0.7329,-630.3113
0.7334,-630.3113
0.7339,-631.8372
0.7344,-630.3113
0.7349,-626.6489
0.7354,-623.2918
0.7359,-618.7139
0.7364,-611.6944
0.7369,-605.2853
0.7374,-602.2334
0.7379,-599.1814
0.7384,-593.3827
0.7389,-586.6685
0.7394,-580.5646
0.7399,-572.3243
0.7404,-561.6425
0.7409,-552.1815
0.7414,-546.3828
0.7419,-539.6685
0.7424,-529.2919
0.7429,-518.6101
0.7434,-510.9802
0.7439,-501.8244
0.7444,-487.7855
0.7449,-473.1361
0.7454,-463.6751
0.7459,-456.6556
0.7464,-447.1946
0.7469,-435.9024
0.7474,-424.3050
0.7479,-410.8765
0.7484,-395.6168
0.7489,-381.8830
0.7494,-370.5908
0.7499,-358.9934
0.7504,-344.9545
0.7509,-331.2207
0.7514,-318.7078
0.7519,-304.0584
0.7524,-288.4935
0.7529,-276.8961
0.7534,-268.3507
0.7539,-256.4481
0.7544,-241.1884
0.7549,-228.6754
0.7554,-218.6040
0.7559,-203.0391
0.7564,-182.8963
0.7569,-169.1625
0.7574,-163.3638
0.7579,-149.9353
0.7584,-123.6885
0.7589,-100.4938
0.7594,-94.6951
0.7599,-96.5262
0.7604,-88.2860
0.7609,-71.1951
0.7614,-58.0717
0.7619,-51.0523
0.7624,-41.5912
0.7629,-26.9419
0.7634,-13.5134
0.7639,-2.8316
0.7644,8.7658
0.7649,22.1944
0.7654,31.9606
0.7659,38.6749
0.7664,45.9996
0.7669,56.0710
0.7674,67.0580
0.7679,78.0450
0.7684,89.3372
0.7689,100.6294
0.7694,110.0904
0.7699,118.9410
0.7704,128.0968
0.7709,136.0319
0.7714,143.6618
0.7719,152.8176
0.7724,163.1942
0.7729,171.7396
0.7734,177.5383
0.7739,183.9474
0.7744,191.5773
0.7749,198.9020
0.7754,205.9214
0.7759,214.4669
0.7764,223.9279
0.7769,230.6422
0.7774,234.6097
0.7779,239.7980
0.7784,246.8175
0.7789,252.9214
0.7794,257.1941
0.7799,263.2980
0.7804,270.9278
0.7809,277.3369
0.7814,280.9992
0.7819,284.6616
0.7824,288.9343
0.7829,293.2070
0.7834,297.4797
0.7839,304.1940
0.7844,311.8239
0.7849,316.4018
0.7854,317.6226
0.7859,319.7589
0.7864,323.1161
0.7869,325.8628
0.7874,328.3044
0.7879,332.8823
0.7884,338.3758
0.7889,341.4277
0.7894,341.7329
0.7899,342.9537
0.7904,346.0057
0.7909,348.1420
0.7914,349.9732
0.7919,353.6355
0.7924,357.2978
0.7929,357.6030
0.7934,355.4667
0.7939,355.1615
0.7944,356.6875
0.7949,357.6030
0.7954,357.9082
0.7959,360.0446
0.7964,362.1810
0.7969,360.6550
0.7974,356.9927
0.7979,354.8563
0.7984,354.5511
0.7989,353.3303
0.7994,351.8044
0.7999,353.3303
0.8004,355.7719
0.8009,354.8563
0.8014,350.2784
0.8019,347.2264
0.8024,346.9212
0.8029,346.3109
0.8034,344.1745
0.8039,343.2589
0.8044,344.4797
0.8049,344.1745
0.8054,340.8174
0.8059,335.6290
0.8064,330.7459
0.8069,326.7784
0.8074,324.9472
0.8079,324.6420
0.8084,323.4213
0.8089,319.1485
0.8094,313.9602
0.8099,310.2979
0.8104,307.5512
0.8109,303.8888
0.8114,300.2265
0.8119,298.3953
0.8124,296.8694
0.8129,292.5966
0.8134,286.7979
0.8139,281.9148
0.8144,278.2525
0.8149,274.2850
0.8154,270.9278
0.8159,268.1811
0.8164,264.8239
0.8169,259.3304
0.8174,252.3110
0.8179,246.5123
0.8184,241.9344
0.8189,237.6616
0.8194,233.6941
0.8199,229.7266
0.8204,225.7591
0.8209,221.7915
0.8214,215.9928
0.8219,207.7526
0.8224,200.1227
0.8229,199.5123
0.8234,206.5318
0.8239,209.8890
0.8244,200.4279
0.8249,183.0318
0.8254,170.8241
0.8259,167.4669
0.8264,164.7202
0.8269,157.0903
0.8274,150.6812
0.8279,148.8501
0.8284,146.4085
0.8289,139.9994
0.8294,133.2852
0.8299,129.0124
0.8304,123.5189
0.8309,115.2787
0.8314,109.1748
0.8319,107.9540
0.8324,105.8177
0.8329,98.4930
0.8334,90.8631
0.8339,86.8956
0.8344,83.8437
0.8349,77.7398
0.8354,72.2463
0.8359,71.0255
0.8364,70.1099
0.8369,64.3112
0.8374,56.3762
0.8379,52.1034
0.8384,48.7463
0.8389,43.2528
0.8394,37.7593
0.8399,36.2333
0.8404,35.3177
0.8409,29.5191
0.8414,21.5840
0.8419,17.0061
0.8424,15.1749
0.8429,11.2074
0.8434,5.7139
0.8438,3.8827
0.8443,4.1879
0.8448,1.1360
0.8453,-5.8835
0.8458,-13.2082
0.8463,-18.7017
0.8468,-22.6692
0.8473,-24.8055
0.8478,-25.1107
0.8483,-27.5523
0.8488,-34.5718
0.8493,-41.8964
0.8498,-45.5588
0.8503,-47.0847
0.8508,-50.4419
0.8513,-54.4094
0.8518,-55.3250
0.8523,-55.9354
0.8528,-61.1237
0.8533,-67.5328
0.8538,-70.5847
0.8543,-71.8055
0.8548,-75.1626
0.8553,-78.8250
0.8558,-77.9094
0.8563,-75.7730
0.8568,-79.1302
0.8573,-86.4548
0.8578,-91.0327
0.8583,-91.6431
0.8588,-92.5587
0.8593,-94.3899
0.8598,-94.0847
0.8603,-93.1691
0.8608,-97.1366
0.8613,-102.9353
0.8618,-105.3769
0.8623,-105.3769
0.8628,-108.4288
0.8633,-112.7015
0.8638,-111.1756
0.8643,-106.5976
0.8648,-108.1236
0.8653,-116.9743
0.8658,-123.6885
0.8663,-124.9093
0.8668,-125.5197
0.8673,-128.5716
0.8678,-128.8768
0.8683,-124.9093
0.8688,-123.3833
0.8693,-128.2665
0.8698,-134.0651
0.8703,-135.8963
0.8708,-136.5067
0.8713,-139.2535
0.8718,-139.8638
0.8723,-136.5067
0.8728,-134.6755
0.8733,-138.6431
0.8738,-143.8314
0.8743,-143.8314
0.8748,-141.6950
0.8753,-141.3898
0.8758,-141.6950
0.8763,-138.6431
0.8768,-134.6755
0.8773,-135.8963
0.8778,-139.2535
0.8783,-138.3379
0.8788,-134.0651
0.8793,-131.9288
0.8798,-132.2340
0.8803,-129.7924
0.8808,-125.5197
0.8813,-124.6041
0.8818,-127.6561
0.8823,-127.0457
0.8828,-122.4678
0.8833,-119.7210
0.8838,-119.7210
0.8843,-116.0587
0.8848,-108.1236
0.8853,-105.6821
0.8858,-111.4808
0.8863,-114.2275
0.8868,-103.8509
0.8873,-88.5912
0.8878,-84.6237
0.8883,-94.3899
0.8888,-105.0717
0.8893,-106.5976
0.8898,-101.4093
0.8903,-98.0522
0.8908,-98.6626
0.8913,-98.0522
0.8918,-92.8639
0.8923,-85.8444
0.8928,-81.5717
0.8933,-81.5717
0.8938,-81.8769
0.8943,-80.0457
0.8948,-77.6042
0.8953,-76.3834
0.8958,-74.2470
0.8963,-69.3639
0.8968,-64.4808
0.8973,-63.2600
0.8978,-63.5652
0.8983,-62.3445
0.8988,-59.9029
0.8993,-58.6821
0.8998,-56.5458
0.9003,-52.2730
0.9008,-48.6107
0.9013,-48.9159
0.9018,-50.7471
0.9023,-49.8315
0.9028,-46.4744
0.9033,-44.6432
0.9038,-42.8120
0.9043,-37.9289
0.9048,-32.4354
0.9053,-31.2146
0.9058,-33.3510
0.9063,-33.9614
0.9068,-31.8250
0.9073,-29.9939
0.9078,-28.1627
0.9083,-25.1107
0.9088,-22.0588
0.9093,-21.7536
0.9098,-22.9744
0.9103,-22.3640
0.9108,-21.4484
0.9113,-22.0588
0.9118,-21.7536
0.9123,-18.3965
0.9128,-15.3445
0.9133,-17.4809
0.9138,-21.4484
0.9143,-22.0588
0.9148,-20.8380
0.9153,-21.1432
0.9158,-22.3640
0.9163,-20.8380
0.9168,-18.3965
0.9173,-19.3120
0.9178,-22.0588
0.9183,-22.9744
0.9188,-22.9744
0.9193,-23.8900
0.9198,-23.5848
0.9203,-19.0069
0.9208,-14.4289
0.9213,-14.1237
0.9218,-16.2601
0.9223,-15.9549
0.9228,-14.1237
0.9233,-13.5134
0.9238,-12.2926
0.9243,-7.4095
0.9248,-2.5264
0.9253,-1.9160
0.9258,-4.9679
0.9263,-6.4939
0.9268,-6.1887
0.9273,-5.5783
0.9278,-4.3575
0.9283,-1.6108
0.9288,0.2204
0.9293,-0.3900
0.9298,-1.6108
0.9303,-1.3056
0.9308,-1.6108
0.9313,-2.5264
0.9318,-1.6108
0.9323,1.4412
0.9328,2.0516
0.9333,-1.6108
0.9338,-5.2731
0.9343,-5.2731
0.9348,-4.6627
0.9353,-6.4939
0.9358,-7.1043
0.9363,-4.6627
0.9368,-3.4419
0.9373,-6.4939
0.9378,-10.4614
0.9383,-11.3770
0.9388,-11.3770
0.9393,-12.9030
0.9398,-12.9030
0.9403,-10.4614
0.9408,-9.2406
0.9413,-11.3770
0.9418,-14.7341
0.9423,-14.7341
0.9428,-13.5134
0.9433,-13.2082
0.9438,-12.2926
0.9443,-9.2406
0.9448,-7.4095
0.9453,-8.3251
0.9458,-11.3770
0.9463,-13.5134
0.9468,-14.1237
0.9473,-13.2082
0.9478,-11.0718
0.9483,-9.2406
0.9488,-8.9354
0.9493,-8.6302
0.9498,-8.9354
0.9503,-10.7666
0.9508,-13.5134
0.9513,-13.2082
0.9518,-10.4614
0.9523,-10.4614
0.9528,-14.1237
0.9533,-12.5978
0.9538,-3.7471
0.9543,0.5256
0.9548,-8.3251
0.9553,-21.4484
0.9558,-23.5848
0.9563,-17.1757
0.9568,-15.3445
0.9573,-20.5328
0.9578,-24.1952
0.9583,-23.2796
0.9588,-22.9744
0.9593,-24.8055
0.9598,-23.8900
0.9603,-20.5328
0.9608,-20.2276
0.9613,-23.2796
0.9618,-24.5004
0.9623,-22.6692
0.9628,-21.4484
0.9633,-21.7536
0.9638,-19.9224
0.9643,-15.6497
0.9648,-12.9030
0.9653,-13.5134
0.9658,-14.1237
0.9663,-14.1237
0.9668,-15.3445
0.9673,-15.3445
0.9678,-11.9874
0.9683,-7.1043
0.9688,-6.4939
0.9693,-8.6302
0.9698,-9.2406
0.9703,-7.1043
0.9708,-5.5783
0.9713,-5.5783
0.9718,-4.0523
0.9723,-1.6108
0.9728,-1.0004
0.9733,-2.8316
0.9738,-3.1367
0.9743,-1.3056
0.9748,-0.0848
0.9753,1.1360
0.9758,4.1879
0.9763,7.2399
0.9768,7.2399
0.9773,5.1035
0.9778,4.7983
0.9783,6.3243
0.9788,7.5451
0.9793,9.0710
0.9798,13.3438
0.9803,17.9217
0.9808,19.1424
0.9813,18.2269
0.9818,19.1424
0.9823,21.5840
0.9828,23.1100
0.9833,24.6359
0.9838,28.2983
0.9843,33.1814
0.9848,34.4022
0.9853,31.9606
0.9858,29.8243
0.9863,28.9087
0.9868,28.2983
0.9873,27.9931
0.9878,29.5191
0.9883,31.6554
0.9888,31.0450
0.9893,28.9087
0.9898,28.9087
0.9903,30.1294
0.9908,29.5191
0.9913,28.2983
0.9918,29.2139
0.9923,31.6554
0.9928,31.3502
0.9933,27.9931
0.9938,25.8567
0.9943,25.5515
0.9948,24.6359
0.9953,24.0256
0.9958,25.5515
0.9963,27.0775
0.9968,24.6359
0.9973,20.3632
0.9978,18.5321
0.9983,18.5321
0.9988,16.7009
0.9993,14.8697
0.9998,16.0905
1.0003,17.6165
1.0008,14.2593
1.0013,8.1554
1.0018,4.7983
1.0023,3.5775
1.0028,0.2204
1.0033,-3.1367
1.0038,-3.1367
1.0043,-1.9160
1.0048,-5.8835
1.0053,-13.2082
1.0058,-17.7861
1.0063,-20.2276
1.0068,-25.1107
1.0073,-29.9939
1.0078,-30.6042
1.0083,-30.6042
1.0088,-35.4874
1.0093,-42.2016
1.0098,-44.6432
1.0103,-45.8640
1.0108,-51.6627
1.0113,-57.4614
1.0118,-56.2406
1.0123,-55.0198
1.0128,-62.6497
1.0133,-72.4159
1.0138,-69.6691
1.0143,-59.9029
1.0148,-61.4289
1.0153,-76.3834
1.0158,-87.9808
1.0163,-88.8964
1.0168,-90.1172
1.0173,-97.7470
1.0178,-103.8509
1.0183,-102.0197
1.0188,-99.8834
1.0193,-102.3249
1.0198,-104.7665
1.0203,-102.9353
1.0208,-102.0197
1.0213,-106.2925
1.0218,-110.8704
1.0223,-111.4808
1.0228,-110.5652
1.0233,-109.9548
1.0238,-107.8184
1.0243,-104.4613
1.0248,-105.0717
1.0253,-108.7340
1.0258,-110.5652
1.0263,-109.3444
1.0268,-109.3444
1.0273,-111.1756
1.0278,-110.8704
1.0283,-109.0392
1.0288,-109.9548
1.0293,-113.6171
1.0298,-114.5327
1.0303,-110.2600
1.0308,-105.0717
1.0313,-101.1042
1.0318,-96.5262
1.0323,-92.5587
1.0328,-91.6431
1.0333,-92.5587
1.0338,-91.6431
1.0343,-88.2860
1.0348,-85.8444
1.0353,-84.0133
1.0358,-80.6561
1.0363,-77.9094
1.0368,-79.1302
1.0373,-82.4873
1.0378,-83.0977
1.0383,-81.2665
1.0388,-80.0457
1.0393,-77.9094
1.0398,-73.6367
1.0403,-69.3639
1.0408,-69.6691
1.0413,-71.5003
1.0418,-69.9743
1.0423,-66.6172
1.0428,-65.0912
1.0433,-62.6497
1.0438,-55.6302
1.0443,-48.3055
1.0448,-45.8640
1.0453,-46.1692
1.0458,-43.1172
1.0463,-37.9289
1.0468,-34.2666
1.0473,-29.6887
1.0478,-20.5328
1.0483,-11.0718
1.0488,-8.6302
1.0493,-9.2406
1.0498,-4.6627
1.0503,3.2723
1.0508,7.2399
1.0513,8.7658
1.0518,19.1424
1.0523,39.2853
1.0528,54.2398
1.0533,54.5450
1.0538,48.1359
1.0543,48.7463
1.0548,55.7658
1.0553,60.3437
1.0558,60.6489
1.0563,62.7852
1.0568,71.3307
1.0573,82.0125
1.0578,86.8956
1.0583,83.5385
1.0588,77.7398
1.0593,78.0450
1.0598,85.6748
1.0603,94.5255
1.0608,97.5774
1.0613,96.9670
1.0618,98.4930
1.0623,102.4605
1.0628,104.9021
1.0633,105.2073
1.0638,107.9540
1.0643,114.3631
1.0648,119.5514
1.0653,119.5514
1.0658,117.7202
1.0663,117.1099
1.0668,117.4150
1.0673,117.1099
1.0678,118.3306
1.0683,122.2982
1.0688,125.3501
1.0693,123.8241
1.0698,120.7722
1.0703,121.3826
1.0708,124.1293
1.0713,125.3501
1.0718,126.2657
1.0723,129.9280
1.0728,133.5903
1.0733,132.6748
1.0738,129.0124
1.0743,129.3176
1.0748,133.2852
1.0753,135.4215
1.0758,134.5059
1.0763,136.9475
1.0768,143.0514
1.0773,143.6618
1.0778,136.3371
1.0783,133.5903
1.0788,143.9670
1.0793,158.3111
1.0798,161.0578
1.0803,152.5124
1.0808,145.7981
1.0813,145.7981
1.0818,147.3241
1.0823,146.7137
1.0828,147.6293
1.0833,150.9864
1.0838,153.7332
1.0843,157.3955
1.0848,165.0254
1.0853,171.1293
1.0858,165.6358
1.0863,151.2916
1.0868,144.8825
1.0873,156.7851
1.0878,175.4020
1.0883,183.9474
1.0888,180.2851
1.0893,176.6228
1.0898,179.6747
1.0903,183.6422
1.0908,183.0318
1.0913,180.2851
1.0918,181.2007
1.0923,184.8630
1.0928,185.7786
1.0933,182.1163
1.0938,177.2331
1.0943,174.1812
1.0948,171.4345
1.0953,168.3825
1.0958,166.5513
1.0963,166.5513
1.0968,166.2462
1.0973,164.1098
1.0978,161.3630
1.0983,159.8371
1.0988,160.1423
1.0993,161.0578
1.0998,163.4994
1.1003,167.1617
1.1008,169.2981
1.1013,168.9929
1.1018,169.6033
1.1023,172.3500
1.1028,175.0968
1.1033,175.7072
1.1038,177.2331
1.1043,182.4215
1.1048,188.2201
1.1053,189.4409
1.1058,186.9994
1.1063,185.7786
1.1068,186.6942
1.1073,188.5253
1.1078,190.9669
1.1083,194.3240
1.1088,196.4604
1.1093,196.7656
1.1098,197.6812
1.1103,199.2071
1.1108,199.8175
1.1113,198.9020
1.1118,199.2071
1.1123,202.2591
1.1128,203.1747
1.1133,199.5123
1.1138,195.5448
1.1143,194.9344
1.1148,194.9344
1.1153,193.1033
1.1158,191.8825
1.1163,193.1033
1.1168,192.7981
1.1173,188.2201
1.1178,183.3370
1.1183,181.5059
1.1188,179.9799
1.1193,175.7072
1.1198,172.0448
1.1203,171.7396
1.1208,170.8241
1.1213,164.4150
1.1218,156.1747
1.1223,151.2916
1.1228,148.5449
1.1233,143.6618
1.1238,138.1683
1.1243,135.7267
1.1248,134.2007
1.1253,128.0968
1.1258,117.4150
1.1263,106.1229
1.1268,97.2722
1.1273,89.9475
1.1278,82.9281
1.1283,75.6034
1.1288,67.0580
1.1293,57.5969
1.1298,47.8307
1.1303,37.7593
1.1308,24.9411
1.1313,10.9022
1.1318,0.5256
1.1323,-7.7147
1.1328,-20.2276
1.1333,-36.7081
1.1338,-50.7471
1.1343,-58.3769
1.1348,-65.0912
1.1353,-75.1626
1.1358,-85.8444
1.1363,-93.4743
1.1368,-102.0197
1.1373,-113.9223
1.1378,-125.2145
1.1383,-132.2340
1.1388,-138.9483
1.1393,-147.7989
1.1398,-153.9028
1.1403,-154.8184
1.1408,-159.3963
1.1413,-172.8248
1.1418,-183.8118
1.1423,-180.4547
1.1428,-170.6885
1.1433,-173.1300
1.1438,-189.3053
1.1443,-203.3443
1.1448,-206.0910
1.1453,-206.0910
1.1458,-211.5845
1.1463,-219.5196
1.1468,-223.4871
1.1473,-223.7923
1.1478,-224.4027
1.1483,-225.6235
1.1488,-225.9287
1.1493,-226.5391
1.1498,-229.2858
1.1503,-232.3377
1.1508,-234.1689
1.1513,-233.5585
1.1518,-231.7274
1.1523,-229.8962
1.1528,-229.2858
1.1533,-230.2014
1.1538,-231.1170
1.1543,-232.0326
1.1548,-232.3377
1.1553,-231.1170
1.1558,-226.5391
1.1563,-221.0456
1.1568,-217.6884
1.1573,-216.7728
1.1578,-214.6365
1.1583,-210.3637
1.1588,-206.3962
1.1593,-204.2599
1.1598,-200.9027
1.1603,-195.1040
1.1608,-190.5261
1.1613,-189.6105
1.1618,-189.9157
1.1623,-188.6949
1.1628,-186.2534
1.1633,-183.5066
1.1638,-179.5391
1.1643,-175.2664
1.1648,-172.8248
1.1653,-173.4352
1.1658,-175.8768
1.1663,-177.7079
1.1668,-178.6235
1.1673,-178.3183
1.1678,-176.4872
1.1683,-174.3508
1.1688,-174.9612
1.1693,-177.7079
1.1698,-180.1495
1.1703,-182.5911
1.1708,-186.8638
1.1713,-191.4417
1.1718,-193.2729
1.1723,-194.4936
1.1728,-199.0716
1.1733,-206.3962
1.1738,-211.2793
1.1743,-214.3313
1.1748,-219.2144
1.1753,-225.6235
1.1758,-229.8962
1.1763,-232.0326
1.1768,-236.6105
1.1773,-243.9351
1.1778,-250.0390
1.1783,-254.0065
1.1788,-258.2793
1.1793,-262.8572
1.1798,-265.6039
1.1803,-267.7403
1.1808,-272.3182
1.1813,-279.0325
1.1818,-283.9156
1.1823,-286.6624
1.1828,-289.4091
1.1833,-291.8507
1.1838,-291.2403
1.1843,-290.3247
1.1848,-293.0714
1.1853,-298.5649
1.1858,-304.0584
1.1863,-309.5519
1.1868,-316.8766
1.1873,-322.9805
1.1878,-324.2013
1.1883,-324.2013
1.1888,-328.1688
1.1893,-333.0519
1.1898,-333.6623
1.1903,-333.6623
1.1908,-338.8506
1.1913,-346.1753
1.1918,-347.0908
1.1923,-342.8181
1.1928,-340.6818
1.1933,-343.1233
1.1938,-343.7337
1.1943,-340.9870
1.1948,-339.1558
1.1953,-337.9350
1.1958,-334.5779
1.1963,-329.0844
1.1968,-326.3376
1.1973,-326.0324
1.1978,-323.5909
1.1983,-317.4870
1.1988,-310.7727
1.1993,-303.7532
1.1998,-294.9026
1.2003,-285.7468
1.2008,-279.9481
1.2013,-276.8961
1.2018,-272.6234
1.2023,-266.8247
1.2028,-261.3312
1.2033,-254.6169
1.2038,-244.5455
1.2043,-232.6429
1.2048,-223.1819
1.2053,-216.4676
1.2058,-211.5845
1.2063,-207.3118
1.2068,-201.5131
1.2073,-191.1365
1.2078,-177.7079
1.2083,-166.7209
1.2088,-158.1755
1.2093,-147.7989
1.2098,-135.8963
1.2103,-127.3509
1.2108,-121.5522
1.2113,-112.0911
1.2118,-97.7470
1.2123,-85.5392
1.2128,-77.6042
1.2133,-68.4483
1.2138,-56.8510
1.2143,-47.0847
1.2148,-36.4029
1.2153,-15.6497
1.2158,12.4282
1.2163,30.1294
1.2168,29.5191
1.2173,25.8567
1.2178,34.4022
1.2183,49.6619
1.2188,59.7333
1.2193,66.7528
1.2198,78.3502
1.2203,91.7787
1.2208,98.7982
1.2213,101.8501
1.2218,107.3436
1.2223,114.6683
1.2228,119.2462
1.2233,122.6034
1.2238,130.5384
1.2243,140.3046
1.2248,145.4929
1.2253,146.1033
1.2258,145.4929
1.2263,147.3241
1.2268,151.9020
1.2273,160.4475
1.2278,169.9085
1.2283,172.9604
1.2288,168.9929
1.2293,165.9410
1.2298,168.6877
1.2303,172.9604
1.2308,174.1812
1.2313,175.7072
1.2318,181.2007
1.2323,186.3890
1.2328,185.7786
1.2333,183.0318
1.2338,185.1682
1.2343,190.0513
1.2348,192.1877
1.2353,193.1033
1.2358,197.6812
1.2363,204.3955
1.2368,206.5318
1.2373,203.4799
1.2378,202.5643
1.2383,207.1422
1.2388,212.6357
1.2393,215.3825
1.2398,219.0448
1.2403,225.4539
1.2408,231.2526
1.2413,232.7785
1.2418,233.0837
1.2423,236.4409
1.2428,241.0188
1.2433,244.3759
1.2438,248.0383
1.2443,254.4473
1.2448,261.7720
1.2453,265.7395
1.2458,267.2655
1.2463,268.7915
1.2468,271.8434
1.2473,275.5057
1.2478,280.6941
1.2483,287.1031
1.2488,292.5966
1.2493,295.6486
1.2498,298.7005
1.2503,303.2784
1.2508,307.8564
1.2513,311.8239
1.2518,317.6226
1.2523,325.2524
1.2528,330.7459
1.2533,331.6615
1.2538,333.4927
1.2543,338.3758
1.2548,343.2589
1.2553,345.7005
1.2558,349.6680
1.2563,357.6030
1.2568,363.4017
1.2573,363.4017
1.2578,362.4862
1.2583,365.2329
1.2588,368.8952
1.2593,369.2004
1.2598,370.1160
1.2603,374.9991
1.2608,378.6615
1.2613,376.5251
1.2618,371.6420
1.2623,370.1160
1.2628,371.0316
1.2633,370.4212
1.2638,370.1160
1.2643,371.9472
1.2648,373.4732
1.2653,370.7264
1.2658,365.5381
1.2663,361.5706
1.2668,358.8238
1.2673,356.9927
1.2678,357.2978
1.2683,358.8238
1.2688,357.9082
1.2693,354.8563
1.2698,353.0251
1.2703,351.8044
1.2708,347.2264
1.2713,344.1745
1.2718,350.8888
1.2723,362.1810
1.2728,361.5706
1.2733,345.0901
1.2738,328.6096
1.2743,324.3369
1.2748,324.3369
1.2753,318.2330
1.2758,310.2979
1.2763,307.5512
1.2768,306.3304
1.2773,298.7005
1.2778,288.6291
1.2783,282.8304
1.2788,279.1681
1.2793,272.1486
1.2798,264.5187
1.2803,259.9408
1.2808,255.6681
1.2813,247.1227
1.2818,236.7461
1.2823,230.0318
1.2828,223.6227
1.2833,214.4669
1.2838,205.0058
1.2843,199.5123
1.2848,195.8500
1.2853,188.2201
1.2858,177.5383
1.2863,168.3825
1.2868,162.2786
1.2873,158.3111
1.2878,155.8695
1.2883,152.5124
1.2888,145.1877
1.2893,133.5903
1.2898,123.5189
1.2903,116.8047
1.2908,110.0904
1.2913,100.6294
1.2918,92.0839
1.2923,85.6748
1.2928,77.7398
1.2933,66.4476
1.2938,56.0710
1.2943,48.4411
1.2948,40.2009
1.2953,29.2139
1.2958,20.0580
1.2963,14.8697
1.2968,9.0710
1.2973,-1.3056
1.2978,-12.9030
1.2983,-21.1432
1.2988,-28.1627
1.2993,-37.3185
1.2998,-45.5588
1.3003,-50.7471
1.3008,-56.8510
1.3013,-67.5328
1.3018,-79.7405
1.3023,-89.5068
1.3028,-97.4418
1.3033,-105.6821
1.3038,-112.7015
1.3043,-116.9743
1.3048,-122.4678
1.3053,-131.0132
1.3058,-140.7794
1.3063,-148.7145
1.3068,-154.8184
1.3073,-160.9223
1.3078,-165.8054
1.3083,-169.7729
1.3088,-174.9612
1.3093,-182.2859
1.3098,-188.6949
1.3103,-193.5781
1.3108,-199.6819
1.3113,-206.0910
1.3118,-209.1430
1.3123,-209.4482
1.3128,-212.8053
1.3133,-220.1300
1.3138,-225.9287
1.3143,-227.4546
1.3148,-229.8962
1.3153,-234.7793
1.3158,-236.9157
1.3163,-235.0845
1.3168,-234.7793
1.3173,-239.6624
1.3178,-245.7663
1.3183,-248.5130
1.3188,-250.0390
1.3193,-252.7858
1.3198,-253.3962
1.3203,-251.2598
1.3208,-251.8702
1.3213,-256.4481
1.3218,-260.1104
1.3223,-258.8897
1.3228,-258.2793
1.3233,-261.3312
1.3238,-262.8572
1.3243,-259.1949
1.3248,-256.1429
1.3253,-258.8897
1.3258,-262.8572
1.3263,-263.1624
1.3268,-261.0260
1.3273,-260.1104
1.3278,-258.8897
1.3283,-255.5325
1.3288,-254.0065
1.3293,-254.9221
1.3298,-254.3117
1.3303,-250.3442
1.3308,-249.1234
1.3313,-251.2598
1.3318,-249.1234
1.3323,-240.8832
1.3328,-237.2209
1.3333,-241.7988
1.3338,-242.1040
1.3343,-228.9806
1.3348,-214.0261
1.3353,-214.0261
1.3358,-226.2339
1.3363,-232.9481
1.3368,-229.5910
1.3373,-225.0131
1.3378,-225.6235
1.3383,-225.9287
1.3388,-222.5715
1.3393,-218.2988
1.3398,-214.9417
1.3403,-211.8897
1.3408,-209.4482
1.3413,-209.7534
1.3418,-211.2793
1.3423,-210.3637
1.3428,-207.6170
1.3433,-205.7858
1.3438,-203.3443
1.3443,-198.4612
1.3448,-192.9677
1.3453,-190.5261
1.3458,-190.2209
1.3463,-189.0001
1.3468,-185.9482
1.3473,-182.2859
1.3478,-178.3183
1.3483,-174.3508
1.3488,-171.9093
1.3493,-170.9937
1.3498,-169.4677
1.3503,-165.5002
1.3508,-160.9223
1.3513,-157.2599
1.3518,-152.9872
1.3523,-148.4093
1.3528,-146.5781
1.3533,-145.9677
1.3538,-143.5262
1.3543,-138.6431
1.3548,-134.6755
1.3553,-131.6236
1.3558,-126.4353
1.3563,-118.1950
1.3568,-112.0911
1.3573,-110.2600
1.3578,-109.0392
1.3583,-104.7665
1.3588,-100.1886
1.3593,-96.2210
1.3598,-91.3379
1.3603,-85.8444
1.3608,-82.4873
1.3613,-81.8769
1.3618,-80.0457
1.3623,-76.0782
1.3628,-72.1107
1.3633,-69.0587
1.3638,-64.1756
1.3643,-56.8510
1.3648,-51.0523
1.3653,-48.6107
1.3658,-47.0847
1.3663,-44.0328
1.3668,-39.4549
1.3673,-34.8770
1.3678,-29.3835
1.3683,-23.2796
1.3688,-19.3120
1.3693,-17.7861
1.3698,-15.6497
1.3703,-12.2926
1.3708,-8.0199
1.3713,-3.7471
1.3718,1.4412
1.3723,6.9347
1.3728,10.2918
1.3733,11.2074
1.3738,12.4282
1.3743,14.8697
1.3748,17.9217
1.3753,21.8892
1.3758,26.7723
1.3763,30.7398
1.3768,31.0450
1.3773,30.1294
1.3778,30.7398
1.3783,32.5710
1.3788,34.4022
1.3793,37.7593
1.3798,42.3372
1.3803,45.6944
1.3808,45.0840
1.3813,43.2528
1.3818,43.8632
1.3823,45.0840
1.3828,45.9996
1.3833,48.4411
1.3838,53.3242
1.3843,57.9021
1.3848,58.8177
1.3853,57.5969
1.3858,56.0710
1.3863,55.4606
1.3868,56.3762
1.3873,60.3437
1.3878,63.7008
1.3883,61.2593
1.3888,55.1554
1.3893,53.6294
1.3898,59.7333
1.3903,66.4476
1.3908,69.4995
1.3913,72.8567
1.3918,79.5709
1.3923,84.4540
1.3928,85.0644
1.3933,85.3696
1.3938,89.3372
1.3943,93.6099
1.3948,95.7462
1.3953,99.7138
1.3958,106.4280
1.3963,110.3956
1.3968,110.3956
1.3973,112.5319
1.3978,116.8047
1.3983,117.7202
1.3988,118.3306
1.3993,128.4020
1.3998,146.1033
1.4003,152.8176
1.4008,141.8306
1.4013,129.6228
1.4018,131.4540
1.4023,139.9994
1.4028,141.8306
1.4033,140.6098
1.4038,146.4085
1.4043,155.8695
1.4048,158.0059
1.4053,154.3436
1.4058,154.3436
1.4062,158.0059
1.4067,158.9215
1.4072,158.6163
1.4077,163.1942
1.4082,169.9085
1.4087,171.1293
1.4092,168.6877
1.4097,169.2981
1.4102,172.9604
1.4107,174.1812
1.4112,174.4864
1.4117,178.1487
1.4122,182.7266
1.4127,182.4215
1.4132,179.6747
1.4137,181.2007
1.4142,185.1682
1.4147,186.0838
1.4152,186.3890
1.4157,192.4929
1.4162,201.6487
1.4167,205.0058
1.4172,203.1747
1.4177,202.8695
1.4182,205.6162
1.4187,205.0058
1.4192,201.0383
1.4197,200.1227
1.4202,201.3435
1.4207,196.1552
1.4212,184.5578
1.4217,176.6228
1.4222,175.4020
1.4227,172.9604
1.4232,163.4994
1.4237,153.4280
1.4242,149.4605
1.4247,147.9345
1.4252,143.3566
1.4257,136.3371
1.4262,130.8436
1.4267,126.5709
1.4272,122.2982
1.4277,119.2462
1.4282,118.6358
1.4287,116.1943
1.4292,111.3112
1.4297,107.9540
1.4302,107.3436
1.4307,104.9021
1.4312,99.7138
1.4317,96.9670
1.4322,99.1034
1.4327,99.1034
1.4332,92.6943
1.4337,85.6748
1.4342,83.5385
1.4347,83.2333
1.4352,80.1813
1.4357,77.7398
1.4362,79.2657
1.4367,80.4865
1.4372,76.5190
1.4377,70.1099
1.4382,66.4476
1.4387,64.3112
1.4392,60.0385
1.4397,56.0710
1.4402,55.7658
1.4407,54.5450
1.4412,47.2203
1.4417,36.5385
1.4422,26.7723
1.4427,16.0905
1.4432,2.9671
1.4437,-8.0199
1.4442,-14.1237
1.4447,-20.2276
1.4452,-32.1302
1.4457,-47.0847
1.4462,-59.5977
1.4467,-69.9743
1.4472,-80.9613
1.4477,-89.8120
1.4482,-94.6951
1.4487,-101.1042
1.4492,-114.2275
1.4497,-130.4028
1.4502,-143.2210
1.4507,-152.6820
1.4512,-161.5326
1.4517,-168.5521
1.4522,-172.8248
1.4527,-177.0976
1.4532,-184.7274
1.4537,-191.7469
1.4542,-195.4092
1.4547,-198.1560
1.4552,-201.2079
1.4557,-201.5131
1.4562,-198.4612
1.4567,-196.6300
1.4572,-198.1560
1.4577,-199.3767
1.4582,-198.4612
1.4587,-198.1560
1.4592,-198.7664
1.4597,-196.3248
1.4602,-191.1365
1.4607,-189.0001
1.4612,-190.5261
1.4617,-190.8313
1.4622,-189.9157
1.4627,-191.4417
1.4632,-191.4417
1.4637,-181.0651
1.4642,-166.1106
1.4647,-163.6690
1.4652,-177.0976
1.4657,-188.6949
1.4662,-186.2534
1.4667,-177.0976
1.4672,-171.9093
1.4677,-167.6365
1.4682,-158.7859
1.4687,-149.9353
1.4692,-147.1885
1.4697,-145.9677
1.4702,-139.8638
1.4707,-131.9288
1.4712,-125.5197
1.4717,-118.8054
1.4722,-109.9548
1.4727,-102.9353
1.4732,-100.7990
1.4737,-98.9678
1.4742,-93.7795
1.4747,-89.2016
1.4752,-87.6756
1.4757,-85.2340
1.4762,-79.1302
1.4767,-74.5522
1.4772,-75.4678
1.4777,-77.6042
1.4782,-77.6042
1.4787,-76.9938
1.4792,-78.2146
1.4797,-77.6042
1.4802,-74.2470
1.4807,-72.1107
1.4812,-74.8574
1.4817,-78.8250
1.4822,-79.1302
1.4827,-77.6042
1.4832,-76.3834
1.4837,-74.5522
1.4842,-70.2795
1.4847,-66.0068
1.4852,-65.3964
1.4857,-68.7535
1.4862,-72.1107
1.4867,-72.1107
1.4872,-68.1432
1.4877,-63.8704
1.4882,-62.6497
1.4887,-61.7341
1.4892,-58.3769
1.4897,-55.0198
1.4902,-57.1562
1.4907,-55.0198
1.4912,-22.0588
1.4917,54.8502
1.4922,149.7657
1.4927,218.1292
1.4932,247.1227
1.4937,263.2980
1.4942,291.0707
1.4947,319.4537
1.4952,319.4537
1.4957,284.0512
1.4962,233.0837
1.4967,188.8305
1.4972,154.0384
1.4977,118.9410
1.4982,72.5515
1.4987,13.9541
1.4992,-52.5782
1.4997,-120.3314
1.5002,-182.2859
1.5007,-229.8962
1.5012,-252.1754
1.5017,-248.8182
1.5022,-240.5780
1.5027,-258.8897
1.5032,-312.9091
1.5037,-378.2207
1.5042,-418.5063
1.5047,-420.9479
1.5052,-400.8051
1.5057,-376.3895
1.5062,-352.5843
1.5067,-325.4220
1.5072,-293.3766
1.5077,-261.9416
1.5082,-235.3897
1.5087,-213.4157
1.5092,-191.1365
1.5097,-164.8898
1.5102,-136.5067
1.5107,-110.8704
1.5112,-87.6756
1.5117,-62.6497
1.5122,-35.4874
1.5127,-11.3770
1.5132,7.2399
1.5137,24.9411
1.5142,44.7788
1.5147,64.3112
1.5152,83.2333
1.5157,104.5969
1.5162,129.3176
1.5167,151.5968
1.5172,168.0773
1.5177,181.8111
1.5182,196.7656
1.5187,212.3305
1.5192,228.2006
1.5197,245.5967
1.5202,262.3824
1.5207,274.2850
1.5212,284.0512
1.5217,297.4797
1.5222,313.6550
1.5227,324.6420
1.5232,329.5252
1.5237,335.9342
1.5242,346.0057
1.5247,351.8044
1.5252,350.5836
1.5257,353.3303
1.5262,362.7913
1.5267,366.4537
1.5272,355.1615
1.5277,340.2070
1.5282,335.6290
1.5287,338.9862
1.5292,338.6810
1.5297,332.8823
1.5302,328.9148
1.5307,327.0836
1.5312,322.8109
1.5317,316.7070
1.5322,312.7395
1.5327,309.9927
1.5332,304.4992
1.5337,296.2590
1.5342,288.0187
1.5347,280.6941
1.5352,273.0642
1.5357,264.8239
1.5362,256.2785
1.5367,244.0707
1.5372,228.8110
1.5377,215.3825
1.5382,205.3110
1.5387,194.6292
1.5392,180.8955
1.5397,167.4669
1.5402,156.1747
1.5407,143.0514
1.5412,125.9605
1.5417,107.9540
1.5422,92.0839
1.5427,77.4346
1.5432,62.1749
1.5437,46.9151
1.5442,32.8762
1.5447,18.2269
1.5452,2.3568
1.5457,-12.9030
1.5462,-27.2471
1.5467,-40.9809
1.5472,-53.1886
1.5477,-63.5652
1.5482,-73.3315
1.5487,-84.6237
1.5492,-96.5262
1.5497,-105.9873
1.5502,-114.2275
1.5507,-123.0781
1.5512,-131.3184
1.5517,-135.8963
1.5522,-139.5586
1.5527,-146.8833
1.5532,-156.6495
1.5537,-164.5846
1.5542,-169.4677
1.5547,-173.7404
1.5552,-176.7924
1.5557,-177.0976
1.5562,-177.0976
1.5567,-180.7599
1.5572,-186.5586
1.5577,-189.9157
1.5582,-190.8313
1.5587,-192.9677
1.5592,-194.4936
1.5597,-192.9677
1.5602,-189.9157
1.5607,-191.1365
1.5612,-194.7988
1.5617,-195.7144
1.5622,-193.2729
1.5627,-191.1365
1.5632,-189.6105
1.5637,-185.0326
1.5642,-178.3183
1.5647,-174.3508
1.5652,-174.3508
1.5657,-175.5716
1.5662,-175.5716
1.5667,-174.6560
1.5672,-171.9093
1.5677,-166.7209
1.5682,-162.1430
1.5687,-160.0067
1.5692,-157.8703
1.5697,-153.5976
1.5702,-149.9353
1.5707,-150.2405
1.5712,-149.0197
1.5717,-141.3898
1.5722,-131.6236
1.5727,-126.7405
1.5732,-125.2145
1.5737,-120.3314
1.5742,-112.7015
1.5747,-109.3444
1.5752,-109.9548
1.5757,-107.8184
1.5762,-102.3249
1.5767,-98.3574
1.5772,-97.1366
1.5777,-93.4743
1.5782,-86.7600
1.5787,-81.8769
1.5792,-79.1302
1.5797,-75.1626
1.5802,-69.9743
1.5807,-67.5328
1.5812,-68.1432
1.5817,-68.4483
1.5822,-67.5328
1.5827,-67.5328
1.5832,-66.0068
1.5837,-61.1237
1.5842,-56.8510
1.5847,-57.7665
1.5852,-59.9029
1.5857,-58.6821
1.5862,-57.1562
1.5867,-59.2925
1.5872,-58.9873
1.5877,-50.4419
1.5882,-41.5912
1.5887,-40.6757
1.5892,-40.6757
1.5897,-28.1627
1.5902,-9.8510
1.5907,-6.1887
1.5912,-19.0069
1.5917,-29.3835
1.5922,-26.3315
1.5927,-20.5328
1.5932,-22.3640
1.5937,-26.0263
1.5942,-25.4159
1.5947,-22.9744
1.5952,-22.9744
1.5957,-22.0588
1.5962,-17.4809
1.5967,-15.6497
1.5972,-18.7017
1.5977,-22.0588
1.5982,-21.1432
1.5987,-18.3965
1.5992,-15.3445
1.5997,-10.1562
1.6002,-4.9679
1.6007,-4.6627
1.6012,-8.0199
1.6017,-8.0199
1.6022,-3.7471
1.6027,-1.0004
1.6032,-0.6952
1.6037,3.8827
1.6042,13.6489
1.6047,19.1424
1.6052,17.3113
1.6057,14.8697
1.6062,17.6165
1.6067,21.8892
1.6072,25.2463
1.6077,31.3502
1.6082,40.5061
1.6087,48.7463
1.6092,54.8502
1.6097,62.1749
1.6102,70.7203
1.6107,75.9086
1.6112,78.0450
1.6117,84.7592
1.6122,97.5774
1.6127,107.6488
1.6132,112.2267
1.6137,117.4150
1.6142,125.6553
1.6147,131.7592
1.6152,134.2007
1.6157,139.9994
1.6162,151.5968
1.6167,161.0578
1.6172,162.2786
1.6177,161.0578
1.6182,163.8046
1.6187,168.0773
1.6192,168.6877
1.6197,168.6877
1.6202,171.7396
1.6207,173.8760
1.6212,170.2137
1.6217,166.5513
1.6222,167.4669
1.6227,169.6033
1.6232,166.5513
1.6237,161.9734
1.6242,161.6682
1.6247,162.5838
1.6252,158.0059
1.6257,149.1553
1.6262,141.5254
1.6267,135.4215
1.6272,129.9280
1.6277,126.5709
1.6282,126.2657
1.6287,124.4345
1.6292,116.4995
1.6297,107.0384
1.6302,101.8501
1.6307,98.7982
1.6312,93.3047
1.6317,87.5060
1.6322,85.0644
1.6327,82.6229
1.6332,74.9930
1.6337,64.9216
1.6342,57.5969
1.6347,53.6294
1.6352,49.3567
1.6357,44.7788
1.6362,42.3372
1.6367,40.2009
1.6372,35.0126
1.6377,29.2139
1.6382,26.1619
1.6387,24.6359
1.6392,22.1944
1.6397,20.6684
1.6402,21.8892
1.6407,22.8048
1.6412,20.0580
1.6417,17.6165
1.6422,18.2269
1.6427,19.1424
1.6432,17.3113
1.6437,15.7853
1.6442,18.8373
1.6447,23.1100
1.6452,22.8048
1.6457,19.1424
1.6462,17.9217
1.6467,19.7528
1.6472,22.4996
1.6477,24.9411
1.6482,27.0775
1.6487,28.2983
1.6492,28.6035
1.6497,29.2139
1.6502,29.8243
1.6507,29.2139
1.6512,28.9087
1.6517,30.7398
1.6522,32.2658
1.6527,30.4346
1.6532,27.3827
1.6537,26.4671
1.6542,27.0775
1.6547,27.0775
1.6552,30.7398
1.6557,42.9476
1.6562,54.8502
1.6567,52.1034
1.6572,35.9281
1.6577,22.8048
1.6582,21.2788
1.6587,22.4996
1.6592,18.8373
1.6597,13.9541
1.6602,13.0386
1.6607,12.1230
1.6612,5.7139
1.6617,-1.3056
1.6622,-4.6627
1.6627,-7.1043
1.6632,-11.3770
1.6637,-14.4289
1.6642,-14.4289
1.6647,-14.7341
1.6652,-19.3120
1.6657,-25.7211
1.6662,-30.9094
1.6667,-35.4874
1.6672,-40.3705
1.6677,-43.1172
1.6682,-43.4224
1.6687,-44.3380
1.6692,-48.9159
1.6697,-54.4094
1.6702,-59.5977
1.6707,-65.3964
1.6712,-71.1951
1.6717,-73.6367
1.6722,-74.5522
1.6727,-77.9094
1.6732,-84.6237
1.6737,-90.4223
1.6742,-93.4743
1.6747,-97.1366
1.6752,-101.7145
1.6757,-102.9353
1.6762,-102.3249
1.6767,-105.0717
1.6772,-112.0911
1.6777,-116.9743
1.6782,-116.9743
1.6787,-117.2795
1.6792,-120.9418
1.6797,-123.3833
1.6802,-122.4678
1.6807,-122.7730
1.6812,-127.3509
1.6817,-132.2340
1.6822,-133.4548
1.6827,-133.7600
1.6832,-134.9807
1.6837,-135.5911
1.6842,-133.7600
1.6847,-133.1496
1.6852,-136.2015
1.6857,-141.0846
1.6862,-145.0521
1.6867,-147.7989
1.6872,-149.3249
1.6877,-147.7989
1.6882,-144.1366
1.6887,-142.0002
1.6892,-142.3054
1.6897,-142.6106
1.6902,-140.7794
1.6907,-138.9483
1.6912,-137.1171
1.6917,-132.8444
1.6922,-128.2665
1.6927,-126.7405
1.6932,-128.2665
1.6937,-128.2665
1.6942,-125.8249
1.6947,-125.2145
1.6952,-126.1301
1.6957,-124.2989
1.6962,-120.0262
1.6967,-118.5002
1.6972,-120.6366
1.6977,-120.6366
1.6982,-116.9743
1.6987,-113.9223
1.6992,-113.0067
1.6997,-109.6496
1.7002,-102.6301
1.7007,-98.6626
1.7012,-100.1886
1.7017,-101.4093
1.7022,-98.3574
1.7027,-94.0847
1.7032,-91.9483
1.7037,-89.8120
1.7042,-84.6237
1.7047,-80.3509
1.7052,-79.7405
1.7057,-80.6561
1.7062,-79.4353
1.7067,-76.6886
1.7072,-74.8574
1.7077,-71.8055
1.7082,-67.2276
1.7087,-63.8704
1.7092,-63.8704
1.7097,-64.4808
1.7102,-63.2600
1.7107,-61.7341
1.7112,-62.0393
1.7117,-60.5133
1.7122,-56.5458
1.7127,-53.4938
1.7132,-54.1042
1.7137,-55.0198
1.7142,-51.9679
1.7147,-46.7795
1.7152,-44.6432
1.7157,-43.1172
1.7162,-38.2341
1.7167,-32.1302
1.7172,-30.6042
1.7177,-33.0458
1.7182,-29.0783
1.7187,-14.1237
1.7192,0.8308
1.7197,3.8827
1.7202,-5.2731
1.7207,-13.5134
1.7212,-11.6822
1.7217,-3.7471
1.7222,0.5256
1.7227,0.5256
1.7232,2.6619
1.7237,9.0710
1.7242,16.0905
1.7247,19.4476
1.7252,20.6684
1.7257,21.8892
1.7262,22.8048
1.7267,24.0256
1.7272,27.9931
1.7277,34.7074
1.7282,39.2853
1.7287,39.8957
1.7292,40.5061
1.7297,44.4736
1.7302,49.0515
1.7307,50.8827
1.7312,52.7138
1.7317,57.9021
1.7322,63.7008
1.7327,65.5320
1.7332,65.2268
1.7337,67.0580
1.7342,70.7203
1.7347,72.8567
1.7352,74.6878
1.7357,78.9605
1.7362,83.2333
1.7367,83.8437
1.7372,82.6229
1.7377,84.1489
1.7382,87.8112
1.7387,89.9475
1.7392,91.4735
1.7397,95.4410
1.7402,100.6294
1.7407,101.8501
1.7412,99.7138
1.7417,99.7138
1.7422,101.5449
1.7427,101.5449
1.7432,100.0190
1.7437,101.8501
1.7442,105.2073
1.7447,104.9021
1.7452,100.9345
1.7457,97.2722
1.7462,95.4410
1.7467,93.3047
1.7472,91.7787
1.7477,93.9151
1.7482,97.2722
1.7487,96.9670
1.7492,94.5255
1.7497,94.5255
1.7502,97.2722
1.7507,98.7982
1.7512,100.0190
1.7517,103.9865
1.7522,108.2592
1.7527,108.2592
1.7532,105.2073
1.7537,104.5969
1.7542,106.7332
1.7547,107.0384
1.7552,107.0384
1.7557,111.0060
1.7562,116.4995
1.7567,117.4150
1.7572,114.6683
1.7577,114.9735
1.7582,118.6358
1.7587,121.3826
1.7592,121.9930
1.7597,124.7397
1.7602,129.0124
1.7607,130.2332
1.7612,128.7072
1.7617,128.4020
1.7622,130.8436
1.7627,133.5903
1.7632,136.3371
1.7637,141.5254
1.7642,147.0189
1.7647,149.1553
1.7652,148.8501
1.7657,149.4605
1.7662,150.3760
1.7667,150.6812
1.7672,153.7332
1.7677,160.7527
1.7682,166.2462
1.7687,164.7202
1.7692,161.6682
1.7697,162.8890
1.7702,165.3306
1.7707,165.0254
1.7712,164.7202
1.7717,168.9929
1.7722,173.5708
1.7727,171.7396
1.7732,167.1617
1.7737,167.1617
1.7742,168.6877
1.7747,166.2462
1.7752,163.4994
1.7757,165.6358
1.7762,168.3825
1.7767,164.1098
1.7772,156.7851
1.7777,154.0384
1.7782,152.8176
1.7787,147.9345
1.7792,143.9670
1.7797,147.0189
1.7802,149.7657
1.7807,141.5254
1.7812,132.0644
1.7817,136.6423
1.7822,148.2397
1.7827,146.1033
1.7832,129.0124
1.7837,116.8047
1.7842,118.9410
1.7847,121.6878
1.7852,114.3631
1.7857,104.2917
1.7862,100.3242
1.7867,99.4086
1.7872,96.3566
1.7877,93.6099
1.7882,92.3891
1.7887,89.3372
1.7892,82.6229
1.7897,77.4346
1.7902,75.2982
1.7907,70.4151
1.7912,63.0904
1.7917,59.7333
1.7922,60.0385
1.7927,55.1554
1.7932,42.9476
1.7937,32.2658
1.7942,28.6035
1.7947,26.4671
1.7952,19.7528
1.7957,13.3438
1.7962,11.8178
1.7967,9.9866
1.7972,2.9671
1.7977,-5.2731
1.7982,-10.1562
1.7987,-13.8185
1.7992,-19.0069
1.7997,-22.9744
1.8002,-24.5004
1.8007,-26.6367
1.8012,-33.3510
1.8017,-40.6757
1.8022,-44.6432
1.8027,-48.3055
1.8032,-53.4938
1.8037,-57.4614
1.8042,-58.0717
1.8047,-59.5977
1.8052,-65.3964
1.8057,-73.0263
1.8062,-78.5198
1.8067,-84.0133
1.8072,-90.7275
1.8077,-94.3899
1.8082,-94.0847
1.8087,-95.3055
1.8092,-102.6301
1.8097,-110.8704
1.8102,-114.5327
1.8107,-116.9743
1.8112,-121.8574
1.8117,-126.1301
1.8122,-126.1301
1.8127,-126.4353
1.8132,-131.9288
1.8137,-139.5586
1.8142,-143.2210
1.8147,-144.7470
1.8152,-147.4937
1.8157,-150.2405
1.8162,-149.3249
1.8167,-148.7145
1.8172,-152.6820
1.8177,-158.1755
1.8182,-160.3119
1.8187,-160.6171
1.8192,-163.0586
1.8197,-165.8054
1.8202,-165.1950
1.8207,-164.8898
1.8212,-168.8573
1.8217,-173.7404
1.8222,-174.3508
1.8227,-173.1300
1.8232,-174.0456
1.8237,-174.6560
1.8242,-170.6885
1.8247,-165.8054
1.8252,-165.8054
1.8257,-170.0781
1.8262,-171.9093
1.8267,-170.9937
1.8272,-170.0781
1.8277,-169.1625
1.8282,-166.1106
1.8287,-162.7534
1.8292,-163.0586
1.8297,-164.8898
1.8302,-163.9742
1.8307,-160.9223
1.8312,-159.0911
1.8317,-157.5651
1.8322,-153.2924
1.8327,-149.0197
1.8332,-148.7145
1.8337,-150.5456
1.8342,-150.5456
1.8347,-148.4093
1.8352,-146.2729
1.8357,-143.8314
1.8362,-139.5586
1.8367,-136.5067
1.8372,-138.0327
1.8377,-140.1690
1.8382,-138.6431
1.8387,-135.5911
1.8392,-135.2859
1.8397,-136.2015
1.8402,-133.4548
1.8407,-130.4028
1.8412,-131.9288
1.8417,-135.5911
1.8422,-134.9807
1.8427,-132.2340
1.8432,-133.7600
1.8437,-136.8119
1.8442,-134.6755
1.8447,-129.4872
1.8452,-131.9288
1.8457,-142.0002
1.8462,-145.9677
1.8467,-136.5067
1.8472,-126.1301
1.8477,-129.4872
1.8482,-143.2210
1.8487,-152.6820
1.8492,-151.7664
1.8497,-148.1041
1.8502,-149.3249
1.8507,-153.5976
1.8512,-154.8184
1.8517,-151.7664
1.8522,-148.4093
1.8527,-147.4937
1.8532,-148.1041
1.8537,-147.4937
1.8542,-146.2729
1.8547,-144.4418
1.8552,-142.0002
1.8557,-138.0327
1.8562,-133.7600
1.8567,-131.6236
1.8572,-131.3184
1.8577,-130.0976
1.8582,-127.0457
1.8587,-124.6041
1.8592,-123.3833
1.8597,-120.0262
1.8602,-114.8379
1.8607,-110.2600
1.8612,-108.4288
1.8617,-107.2080
1.8622,-105.0717
1.8627,-102.6301
1.8632,-99.5782
1.8637,-94.6951
1.8642,-87.9808
1.8647,-83.0977
1.8652,-80.9613
1.8657,-79.1302
1.8662,-76.0782
1.8667,-71.8055
1.8672,-66.9224
1.8677,-60.2081
1.8682,-52.5782
1.8687,-47.3899
1.8692,-44.6432
1.8697,-41.2860
1.8702,-36.4029
1.8707,-32.4354
1.8712,-29.3835
1.8717,-23.5848
1.8722,-16.5653
1.8727,-12.2926
1.8732,-11.3770
1.8737,-8.3251
1.8742,-2.5264
1.8747,2.0516
1.8752,4.4931
1.8757,7.8503
1.8762,13.0386
1.8767,17.0061
1.8772,17.6165
1.8777,18.2269
1.8782,20.9736
1.8787,23.7204
1.8792,25.8567
1.8797,30.1294
1.8802,36.2333
1.8807,39.2853
1.8812,38.3697
1.8817,38.9801
1.8822,43.2528
1.8827,47.2203
1.8832,49.6619
1.8837,55.1554
1.8842,64.0060
1.8847,70.1099
1.8852,70.7203
1.8857,70.4151
1.8862,73.1619
1.8867,77.7398
1.8872,81.7073
1.8877,87.2008
1.8882,94.2203
1.8887,98.1878
1.8892,97.8826
1.8897,97.8826
1.8902,100.3242
1.8907,102.7657
1.8912,104.2917
1.8917,107.6488
1.8922,112.5319
1.8927,114.0579
1.8932,109.7852
1.8937,103.9865
1.8942,100.6294
1.8947,98.4930
1.8952,96.3566
1.8957,95.7462
1.8962,94.2203
1.8967,88.7268
1.8972,80.7917
1.8977,75.9086
1.8982,74.0774
1.8987,69.8047
1.8992,63.7008
1.8997,60.9541
1.9002,61.8697
1.9007,60.3437
1.9012,54.5450
1.9017,50.8827
1.9022,49.9671
1.9027,48.1359
1.9032,44.7788
1.9037,45.6944
1.9042,49.9671
1.9047,51.1879
1.9052,47.5255
1.9057,45.0840
1.9062,45.3892
1.9067,45.3892
1.9072,45.9996
1.9077,52.1034
1.9082,59.4281
1.9087,60.9541
1.9092,61.2593
1.9097,71.6359
1.9102,90.2527
1.9107,100.9345
1.9112,97.5774
1.9117,92.9995
1.9122,98.4930
1.9127,109.1748
1.9132,116.4995
1.9137,122.9085
1.9142,132.3696
1.9147,142.4410
1.9152,150.9864
1.9157,161.0578
1.9162,173.8760
1.9167,183.6422
1.9172,187.6098
1.9177,191.2721
1.9182,198.5968
1.9187,206.8370
1.9192,213.2461
1.9197,219.6552
1.9202,227.8954
1.9207,234.6097
1.9212,238.2720
1.9217,241.6292
1.9222,246.2071
1.9227,250.1746
1.9232,252.9214
1.9237,258.1097
1.9242,265.4343
1.9247,270.0122
1.9252,270.3174
1.9257,269.7071
1.9262,270.6226
1.9267,271.2330
1.9272,271.2330
1.9277,273.0642
1.9282,275.8109
1.9287,275.2006
1.9292,271.5382
1.9297,268.4863
1.9302,266.3499
1.9307,262.9928
1.9312,258.7201
1.9317,256.5837
1.9322,255.0577
1.9327,250.1746
1.9332,242.8499
1.9337,237.3564
1.9342,233.3889
1.9347,228.5058
1.9352,223.3175
1.9357,222.4019
1.9362,224.2331
1.9367,223.6227
1.9372,220.2656
1.9377,218.1292
1.9382,217.8240
1.9387,216.9084
1.9392,216.9084
1.9397,220.8759
1.9402,224.8435
1.9407,223.9279
1.9412,219.0448
1.9417,216.6032
1.9422,216.2980
1.9427,214.4669
1.9432,211.4149
1.9437,210.8045
1.9442,212.3305
1.9447,211.4149
1.9452,207.4474
1.9457,204.0903
1.9462,202.2591
1.9467,199.5123
1.9472,196.1552
1.9477,193.1033
1.9482,189.1357
1.9487,181.2007
1.9492,172.6552
1.9497,166.8565
1.9502,163.1942
1.9507,158.3111
1.9512,153.1228
1.9517,149.7657
1.9522,144.5773
1.9527,135.1163
1.9532,124.4345
1.9537,117.1099
1.9542,109.1748
1.9547,96.3566
1.9552,81.7073
1.9557,73.1619
1.9562,68.2787
1.9567,59.4281
1.9572,45.0840
1.9577,33.4866
1.9582,28.6035
1.9587,25.5515
1.9592,20.9736
1.9597,14.8697
1.9602,8.4606
1.9607,0.2204
1.9612,-9.8510
1.9617,-18.3965
1.9622,-24.8055
1.9627,-31.5198
1.9632,-38.2341
1.9637,-42.2016
1.9642,-43.7276
1.9647,-48.9159
1.9652,-58.9873
1.9657,-71.5003
1.9662,-84.3185
1.9667,-97.7470
1.9672,-109.6496
1.9677,-116.3639
1.9682,-119.7210
1.9686,-125.2145
1.9691,-132.5392
1.9696,-136.5067
1.9701,-136.8119
1.9706,-139.2535
1.9711,-146.2729
1.9716,-151.4612
1.9721,-151.7664
1.9726,-154.5132
1.9731,-164.2794
1.9736,-173.1300
1.9741,-170.3833
1.9746,-159.7015
1.9751,-155.7339
1.9756,-165.8054
1.9761,-180.7599
1.9766,-189.9157
1.9771,-192.3573
1.9776,-193.8833
1.9781,-196.9352
1.9786,-199.6819
1.9791,-200.5975
1.9796,-200.5975
1.9801,-200.5975
1.9806,-201.2079
1.9811,-201.2079
1.9816,-201.2079
1.9821,-201.8183
1.9826,-202.4287
1.9831,-199.9871
1.9836,-194.4936
1.9841,-191.1365
1.9846,-193.2729
1.9851,-197.8508
1.9856,-199.3767
1.9861,-196.6300
1.9866,-194.1884
1.9871,-192.9677
1.9876,-191.4417
1.9881,-190.2209
1.9886,-191.7469
1.9891,-194.1884
1.9896,-192.3573
1.9901,-187.1690
1.9906,-184.4222
1.9911,-185.9482
1.9916,-184.4222
1.9921,-177.4028
1.9926,-171.6041
1.9931,-171.6041
1.9936,-174.0456
1.9941,-174.6560
1.9946,-174.9612
1.9951,-177.4028
1.9956,-178.0131
1.9961,-174.0456
1.9966,-168.5521
1.9971,-166.7209
1.9976,-167.0261
1.9981,-166.1106
1.9986,-165.5002
1.9991,-166.7209
1.9996,-167.9417
2.0001,-166.4158
2.0006,-164.5846
2.0011,-165.1950
2.0016,-167.9417
2.0021,-171.9093
2.0026,-178.0131
2.0031,-185.3378
2.0036,-189.0001
2.0041,-186.8638
2.0046,-184.4222
2.0051,-185.0326
2.0056,-186.8638
2.0061,-188.3898
2.0066,-190.8313
2.0071,-194.1884
2.0076,-193.8833
2.0081,-190.2209
2.0086,-190.2209
2.0091,-196.3248
2.0096,-201.5131
2.0101,-201.2079
2.0106,-199.3767
2.0111,-201.5131
2.0116,-203.3443
2.0121,-200.5975
2.0126,-198.1560
2.0131,-200.9027
2.0136,-205.4806
2.0141,-205.7858
2.0146,-204.2599
2.0151,-204.2599
2.0156,-203.0391
2.0161,-198.1560
2.0166,-193.8833
2.0171,-195.1040
2.0176,-197.8508
2.0181,-196.9352
2.0186,-194.4936
2.0191,-193.2729
2.0196,-190.5261
2.0201,-183.2014
2.0206,-177.7079
2.0211,-178.6235
2.0216,-180.1495
2.0221,-176.7924
2.0226,-171.6041
2.0231,-169.7729
2.0236,-167.0261
2.0241,-159.3963
2.0246,-152.9872
2.0251,-154.5132
2.0256,-159.3963
2.0261,-159.0911
2.0266,-156.0391
2.0271,-156.9547
2.0276,-158.1755
2.0281,-154.2080
2.0286,-148.7145
2.0291,-149.0197
2.0296,-152.6820
2.0301,-151.7664
2.0306,-148.1041
2.0311,-148.1041
2.0316,-149.9353
2.0321,-147.4937
2.0326,-143.5262
2.0331,-144.7470
2.0336,-148.1041
2.0341,-146.5781
2.0346,-141.3898
2.0351,-139.5586
2.0356,-137.7275
2.0361,-129.7924
2.0366,-121.2470
2.0371,-121.5522
2.0376,-124.2989
2.0381,-114.8379
2.0386,-95.3055
2.0391,-84.3185
2.0396,-89.8120
2.0401,-97.4418
2.0406,-93.4743
2.0411,-83.7081
2.0416,-78.2146
2.0421,-76.6886
2.0426,-72.4159
2.0431,-65.0912
2.0436,-59.2925
2.0441,-54.1042
2.0446,-48.3055
2.0451,-43.1172
2.0456,-40.6757
2.0461,-40.0653
2.0466,-37.0133
2.0471,-31.8250
2.0476,-26.3315
2.0481,-21.7536
2.0486,-16.2601
2.0491,-9.2406
2.0496,-0.6952
2.0501,7.2399
2.0506,13.0386
2.0511,18.8373
2.0516,25.8567
2.0521,33.1814
2.0526,38.3697
2.0531,41.7268
2.0536,47.2203
2.0541,55.4606
2.0546,61.2593
2.0551,64.3112
2.0556,69.8047
2.0561,79.5709
2.0566,88.4216
2.0571,92.3891
2.0576,95.1359
2.0581,100.9345
2.0586,107.9540
2.0591,112.8371
2.0596,116.8047
2.0601,122.6034
2.0606,128.4020
2.0611,130.2332
2.0616,129.9280
2.0621,131.7592
2.0626,136.3371
2.0631,141.8306
2.0636,147.3241
2.0641,153.7332
2.0646,158.6163
2.0651,161.6682
2.0656,165.0254
2.0661,170.5189
2.0666,174.7916
2.0671,177.2331
2.0676,181.2007
2.0681,188.8305
2.0686,194.9344
2.0691,194.9344
2.0696,191.2721
2.0701,190.0513
2.0706,191.8825
2.0711,194.0188
2.0716,196.4604
2.0721,199.8175
2.0726,201.3435
2.0731,197.3760
2.0736,187.9150
2.0741,176.9280
2.0746,168.0773
2.0751,163.1942
2.0756,161.6682
2.0761,160.7527
2.0766,157.0903
2.0771,150.6812
2.0776,145.1877
2.0781,142.1358
2.0786,138.1683
2.0791,132.6748
2.0796,128.0968
2.0801,125.0449
2.0806,120.7722
2.0811,115.2787
2.0816,111.3112
2.0821,107.6488
2.0826,99.1034
2.0831,85.9800
2.0836,74.9930
2.0841,69.1943
2.0846,64.6164
2.0851,57.5969
2.0856,48.7463
2.0861,40.8112
2.0866,33.7918
2.0871,28.6035
2.0876,26.1619
2.0881,25.8567
2.0886,24.3308
2.0891,20.3632
2.0896,17.3113
2.0901,15.7853
2.0906,13.3438
2.0911,10.5970
2.0916,10.9022
2.0921,13.6489
2.0926,13.9541
2.0931,9.6814
2.0936,5.7139
2.0941,4.7983
2.0946,4.7983
2.0951,4.7983
2.0956,6.6295
2.0961,11.2074
2.0966,14.2593
2.0971,14.5645
2.0976,15.4801
2.0981,20.0580
2.0986,25.5515
2.0991,29.5191
2.0996,34.4022
2.1001,42.9476
2.1006,51.7982
2.1011,55.4606
2.1016,55.7658
2.1021,61.2593
2.1026,76.5190
2.1031,96.3566
2.1036,110.0904
2.1041,113.4475
2.1046,114.0579
2.1051,120.4670
2.1056,132.9800
2.1061,143.9670
2.1066,150.9864
2.1071,160.1423
2.1076,173.8760
2.1081,187.3046
2.1086,194.6292
2.1091,199.2071
2.1096,206.5318
2.1101,215.0773
2.1106,221.1811
2.1111,226.0643
2.1116,233.3889
2.1121,241.3240
2.1126,244.9863
2.1131,245.5967
2.1136,248.3434
2.1141,253.5318
2.1146,256.2785
2.1151,256.2785
2.1156,258.1097
2.1161,262.6876
2.1166,265.4343
2.1171,264.5187
2.1176,262.0772
2.1181,259.6356
2.1186,257.1941
2.1191,255.3629
2.1196,255.6681
2.1201,256.5837
2.1206,254.1421
2.1211,248.9538
2.1216,244.3759
2.1221,241.6292
2.1226,237.3564
2.1231,231.8629
2.1236,227.5902
2.1241,224.8435
2.1246,220.2656
2.1251,212.6357
2.1256,203.7851
2.1261,195.8500
2.1266,189.4409
2.1271,184.2526
2.1276,179.3695
2.1281,172.3500
2.1286,163.8046
2.1291,155.5643
2.1296,148.2397
2.1301,139.6942
2.1306,129.0124
2.1311,120.1618
2.1316,116.4995
2.1321,113.4475
2.1326,106.7332
2.1331,99.1034
2.1336,94.5255
2.1341,91.1683
2.1346,85.9800
2.1351,81.4021
2.1356,79.8761
2.1361,79.2657
2.1366,74.9930
2.1371,68.5839
2.1376,65.2268
2.1381,64.3112
2.1386,62.4801
2.1391,60.3437
2.1396,60.6489
2.1401,61.8697
2.1406,60.6489
2.1411,56.9866
2.1416,54.5450
2.1421,52.7138
2.1426,49.3567
2.1431,45.9996
2.1436,45.9996
2.1441,46.6099
2.1446,44.4736
2.1451,39.5905
2.1456,35.3177
2.1461,32.2658
2.1466,28.6035
2.1471,26.1619
2.1476,27.0775
2.1481,27.9931
2.1486,24.6359
2.1491,19.1424
2.1496,15.4801
2.1501,13.9541
2.1506,11.8178
2.1511,8.7658
2.1516,7.2399
2.1521,5.7139
2.1526,1.4412
2.1531,-4.6627
2.1536,-9.5458
2.1541,-14.1237
2.1546,-20.5328
2.1551,-26.9419
2.1556,-30.6042
2.1561,-33.6562
2.1566,-41.2860
2.1571,-51.3575
2.1576,-58.0717
2.1581,-61.7341
2.1586,-67.2276
2.1591,-73.9418
2.1596,-77.6042
2.1601,-79.4353
2.1606,-87.0652
2.1611,-99.8834
2.1616,-108.4288
2.1621,-110.8704
2.1626,-114.8379
2.1631,-124.2989
2.1636,-131.0132
2.1641,-131.9288
2.1646,-138.0327
2.1651,-155.4288
2.1656,-172.2144
2.1661,-173.7404
2.1666,-166.4158
2.1671,-169.1625
2.1676,-186.2534
2.1681,-204.8702
2.1686,-214.0261
2.1691,-216.7728
2.1696,-219.2144
2.1701,-223.4871
2.1706,-227.4546
2.1711,-229.5910
2.1716,-228.0650
2.1721,-225.6235
2.1726,-227.4546
2.1731,-233.2533
2.1736,-233.5585
2.1741,-227.4546
2.1746,-225.6235
2.1751,-232.3377
2.1756,-230.5066
2.1761,-207.9222
2.1766,-178.9287
2.1771,-167.9417
2.1776,-175.8768
2.1781,-182.5911
2.1786,-179.8443
2.1791,-176.1820
2.1796,-177.0976
2.1801,-175.5716
2.1806,-169.4677
2.1811,-165.5002
2.1816,-166.7209
2.1821,-165.5002
2.1826,-159.7015
2.1831,-153.5976
2.1836,-149.3249
2.1841,-142.9158
2.1846,-133.1496
2.1851,-126.1301
2.1856,-123.0781
2.1861,-119.7210
2.1866,-113.6171
2.1871,-107.8184
2.1876,-101.4093
2.1881,-92.2535
2.1886,-83.0977
2.1891,-78.8250
2.1896,-76.6886
2.1901,-69.9743
2.1906,-60.8185
2.1911,-53.7990
2.1916,-48.3055
2.1921,-39.4549
2.1926,-29.6887
2.1931,-23.8900
2.1936,-21.4484
2.1941,-16.2601
2.1946,-8.6302
2.1951,-2.2212
2.1956,3.2723
2.1961,12.1230
2.1966,21.2788
2.1971,25.5515
2.1976,27.3827
2.1981,31.6554
2.1986,38.3697
2.1991,42.6424
2.1996,46.3047
2.2001,52.7138
2.2006,59.1229
2.2011,61.2593
2.2016,61.5645
2.2021,64.9216
2.2026,69.8047
2.2031,71.6359
2.2036,73.4671
2.2041,79.2657
2.2046,85.9800
2.2051,87.5060
2.2056,85.3696
2.2061,83.8437
2.2066,82.9281
2.2071,80.1813
2.2076,79.2657
2.2081,82.6229
2.2086,84.7592
2.2091,80.4865
2.2096,74.0774
2.2101,71.6359
2.2106,71.3307
2.2111,67.6684
2.2116,63.3956
2.2121,62.7852
2.2126,62.4801
2.2131,56.9866
2.2136,48.7463
2.2141,44.4736
2.2146,42.6424
2.2151,38.3697
2.2156,33.1814
2.2161,31.6554
2.2166,30.1294
2.2171,24.3308
2.2176,16.7009
2.2181,12.4282
2.2186,10.2918
2.2191,5.4087
2.2196,0.2204
2.2201,-1.0004
2.2206,-1.9160
2.2211,-7.4095
2.2216,-14.4289
2.2221,-17.7861
2.2226,-19.6172
2.2231,-24.5004
2.2236,-29.9939
2.2241,-31.8250
2.2246,-33.0458
2.2251,-38.8445
2.2256,-46.1692
2.2261,-51.3575
2.2266,-56.5458
2.2271,-63.8704
2.2276,-67.8380
2.2281,-66.6172
2.2286,-69.0587
2.2291,-81.2665
2.2296,-90.7275
2.2301,-85.2340
2.2306,-74.8574
2.2311,-79.1302
2.2316,-97.1366
2.2321,-110.8704
2.2326,-112.3963
2.2331,-112.0911
2.2336,-116.9743
2.2341,-122.4678
2.2346,-123.0781
2.2351,-123.0781
2.2356,-125.2145
2.2361,-127.0457
2.2366,-127.3509
2.2371,-129.1820
2.2376,-133.4548
2.2381,-136.5067
2.2386,-137.4223
2.2391,-137.7275
2.2396,-138.0327
2.2401,-137.4223
2.2406,-137.1171
2.2411,-139.8638
2.2416,-143.5262
2.2421,-144.4418
2.2426,-142.9158
2.2431,-142.3054
2.2436,-142.6106
2.2441,-140.7794
2.2446,-137.4223
2.2451,-136.5067
2.2456,-139.5586
2.2461,-143.5262
2.2466,-146.5781
2.2471,-147.7989
2.2476,-146.5781
2.2481,-143.5262
2.2486,-141.6950
2.2491,-142.6106
2.2496,-143.5262
2.2501,-142.3054
2.2506,-139.5586
2.2511,-136.8119
2.2516,-133.1496
2.2521,-128.2665
2.2526,-124.6041
2.2531,-122.7730
2.2536,-121.2470
2.2541,-118.1950
2.2546,-114.2275
2.2551,-109.9548
2.2556,-104.4613
2.2561,-97.7470
2.2566,-93.1691
2.2571,-91.0327
2.2576,-88.2860
2.2581,-83.7081
2.2586,-80.3509
2.2591,-77.9094
2.2596,-73.9418
2.2601,-68.4483
2.2606,-65.3964
2.2611,-66.0068
2.2616,-65.7016
2.2621,-62.0393
2.2626,-58.0717
2.2631,-55.3250
2.2636,-51.3575
2.2641,-45.2536
2.2646,-40.0653
2.2651,-38.2341
2.2656,-37.0133
2.2661,-35.1822
2.2666,-32.7406
2.2671,-29.0783
2.2676,-22.6692
2.2681,-15.9549
2.2686,-12.5978
2.2691,-11.9874
2.2696,-9.2406
2.2701,-4.6627
2.2706,-0.6952
2.2711,1.4412
2.2716,5.7139
2.2721,10.9022
2.2726,13.0386
2.2731,12.1230
2.2736,12.4282
2.2741,14.5645
2.2746,15.7853
2.2751,16.0905
2.2756,18.5321
2.2761,21.8892
2.2766,22.1944
2.2771,19.4476
2.2776,17.3113
2.2781,17.0061
2.2786,15.7853
2.2791,13.0386
2.2796,12.4282
2.2801,13.9541
2.2806,13.0386
2.2811,8.7658
2.2816,4.4931
2.2821,2.9671
2.2826,2.0516
2.2831,0.8308
2.2836,1.4412
2.2841,4.4931
2.2846,6.9347
2.2851,6.3243
2.2856,2.9671
2.2861,0.2204
2.2866,-1.6108
2.2871,-1.3056
2.2876,0.2204
2.2881,2.3568
2.2886,3.5775
2.2891,3.5775
2.2896,2.6619
2.2901,1.1360
2.2906,-0.6952
2.2911,-1.9160
2.2916,-0.6952
2.2921,1.4412
2.2926,2.9671
2.2931,0.8308
2.2936,-3.4419
2.2941,-4.6627
2.2946,1.4412
2.2951,12.7334
2.2956,17.6165
2.2961,9.9866
2.2966,-1.9160
2.2971,-5.8835
2.2976,-1.6108
2.2981,1.1360
2.2986,-0.0848
2.2991,-0.0848
2.2996,4.7983
2.3001,9.0710
2.3006,8.7658
2.3011,8.1554
2.3016,10.9022
2.3021,13.9541
2.3026,14.8697
2.3031,16.7009
2.3036,22.4996
2.3041,28.2983
2.3046,30.7398
2.3051,31.9606
2.3056,34.4022
2.3061,35.9281
2.3066,35.6229
2.3071,38.0645
2.3076,45.0840
2.3081,50.2723
2.3086,49.9671
2.3091,49.0515
2.3096,52.4086
2.3101,56.0710
2.3106,56.0710
2.3111,56.6814
2.3116,61.8697
2.3121,67.6684
2.3126,67.3632
2.3131,63.0904
2.3136,60.3437
2.3141,58.5125
2.3146,54.8502
2.3151,52.4086
2.3156,53.3242
2.3161,53.9346
2.3166,50.2723
2.3171,44.1684
2.3176,42.0320
2.3181,41.7268
2.3186,39.2853
2.3191,36.5385
2.3196,38.0645
2.3201,41.1164
2.3206,38.9801
2.3211,33.1814
2.3216,30.4346
2.3221,31.3502
2.3226,31.9606
2.3231,30.4346
2.3236,31.0450
2.3241,34.4022
2.3246,36.8437
2.3251,36.2333
2.3256,33.1814
2.3261,30.1294
2.3266,27.6879
2.3271,28.6035
2.3276,33.4866
2.3281,37.4541
2.3286,37.1489
2.3291,34.0970
2.3296,31.6554
2.3301,30.7398
2.3306,31.3502
2.3311,35.9281
2.3316,45.0840
2.3321,53.9346
2.3326,56.3762
2.3331,55.1554
2.3336,56.3762
2.3341,60.6489
2.3346,64.3112
2.3351,67.3632
2.3356,71.6359
2.3361,75.9086
2.3366,78.6554
2.3371,80.7917
2.3376,85.6748
2.3381,91.4735
2.3386,96.6618
2.3391,103.0709
2.3396,112.2267
2.3401,120.7722
2.3406,124.7397
2.3411,126.8761
2.3416,131.7592
2.3421,137.8631
2.3426,142.1358
2.3431,146.4085
2.3436,153.1228
2.3441,159.5319
2.3446,162.5838
2.3451,162.8890
2.3456,163.8046
2.3461,165.3306
2.3466,166.8565
2.3471,169.9085
2.3476,175.0968
2.3481,178.7591
2.3486,177.8435
2.3491,176.3176
2.3496,178.4539
2.3501,181.2007
2.3506,180.8955
2.3511,181.2007
2.3516,185.7786
2.3521,190.3565
2.3526,189.4409
2.3531,185.1682
2.3536,182.4215
2.3541,179.3695
2.3546,172.3500
2.3551,167.1617
2.3556,168.0773
2.3561,169.9085
2.3566,164.7202
2.3571,157.0903
2.3576,155.8695
2.3581,158.3111
2.3586,155.2592
2.3591,151.9020
2.3596,159.2267
2.3601,171.7396
2.3606,170.2137
2.3611,150.6812
2.3616,132.0644
2.3621,127.4865
2.3626,128.0968
2.3631,122.6034
2.3636,114.3631
2.3641,111.0060
2.3646,110.7008
2.3651,105.8177
2.3656,98.1878
2.3661,92.6943
2.3666,87.5060
2.3671,80.1813
2.3676,74.9930
2.3681,74.3826
2.3686,73.7722
2.3691,67.3632
2.3696,59.1229
2.3701,54.8502
2.3706,53.6294
2.3711,50.2723
2.3716,45.9996
2.3721,43.5580
2.3726,41.7268
2.3731,37.7593
2.3736,33.1814
2.3741,29.5191
2.3746,25.5515
2.3751,20.3632
2.3756,17.3113
2.3761,17.6165
2.3766,16.3957
2.3771,10.2918
2.3776,3.5775
2.3781,1.1360
2.3786,0.5256
2.3791,-2.5264
2.3796,-6.7991
2.3801,-7.7147
2.3806,-8.0199
2.3811,-11.3770
2.3816,-16.2601
2.3821,-18.3965
2.3826,-18.0913
2.3831,-19.3120
2.3836,-21.7536
2.3841,-22.3640
2.3846,-21.1432
2.3851,-21.7536
2.3856,-25.4159
2.3861,-30.6042
2.3866,-35.7925
2.3871,-40.0653
2.3876,-41.2860
2.3881,-40.0653
2.3886,-40.3705
2.3891,-44.3380
2.3896,-49.8315
2.3901,-54.1042
2.3906,-57.7665
2.3911,-61.4289
2.3916,-64.4808
2.3921,-66.3120
2.3926,-70.2795
2.3931,-77.9094
2.3936,-86.4548
2.3941,-93.1691
2.3946,-99.8834
2.3951,-106.5976
2.3956,-111.7860
2.3961,-114.2275
2.3966,-117.8898
2.3971,-125.2145
2.3976,-133.1496
2.3981,-138.6431
2.3986,-142.9158
2.3991,-147.7989
2.3996,-152.3768
2.4001,-155.4288
2.4006,-159.7015
2.4011,-167.3313
2.4016,-176.1820
2.4021,-182.5911
2.4026,-187.7794
2.4031,-193.8833
2.4036,-199.0716
2.4041,-202.4287
2.4046,-205.7858
2.4051,-212.1949
2.4056,-219.8248
2.4061,-226.5391
2.4066,-233.8637
2.4071,-242.1040
2.4076,-248.8182
2.4081,-252.7858
2.4086,-257.0585
2.4091,-265.2987
2.4096,-275.0650
2.4101,-283.6104
2.4106,-290.6299
2.4111,-297.6493
2.4116,-302.8377
2.4121,-305.5844
2.4126,-310.1623
2.4131,-318.4026
2.4136,-325.4220
2.4141,-326.9480
2.4146,-326.6428
2.4151,-328.7792
2.4156,-329.6948
2.4161,-325.7272
2.4166,-321.1493
2.4171,-320.8441
2.4176,-321.1493
2.4181,-315.3506
2.4186,-306.1948
2.4191,-300.7013
2.4196,-295.2078
2.4201,-282.3896
2.4206,-266.2143
2.4211,-257.0585
2.4216,-253.0910
2.4221,-239.0520
2.4226,-211.8897
2.4231,-187.4742
2.4236,-178.3183
2.4241,-176.1820
2.4246,-164.5846
2.4251,-142.3054
2.4256,-120.9418
2.4261,-105.3769
2.4266,-90.4223
2.4271,-71.1951
2.4276,-50.4419
2.4281,-32.1302
2.4286,-15.9549
2.4291,-0.6952
2.4296,13.9541
2.4301,28.2983
2.4306,43.8632
2.4311,61.8697
2.4316,82.3177
2.4321,102.4605
2.4326,118.9410
2.4331,133.8955
2.4336,150.3760
2.4341,167.4669
2.4346,182.4215
2.4351,195.8500
2.4356,211.4149
2.4361,229.7266
2.4366,245.9019
2.4371,257.4993
2.4376,268.4863
2.4381,281.9148
2.4386,295.6486
2.4391,307.2460
2.4396,319.1485
2.4401,332.5771
2.4406,344.1745
2.4411,350.8888
2.4416,355.4667
2.4421,360.3498
2.4426,362.4862
2.4431,359.1290
2.4436,352.4147
2.4441,346.3109
2.4446,338.6810
2.4451,326.7784
2.4456,311.8239
2.4461,296.5642
2.4466,281.3044
2.4471,267.2655
2.4476,255.6681
2.4481,246.2071
2.4486,234.3045
2.4491,219.3500
2.4496,204.7006
2.4501,192.7981
2.4506,181.2007
2.4511,168.3825
2.4516,157.0903
2.4521,148.8501
2.4526,140.6098
2.4531,129.6228
2.4536,118.9410
2.4541,111.9215
2.4546,106.7332
2.4551,101.2397
2.4556,97.8826
2.4561,97.2722
2.4566,95.4410
2.4571,92.0839
2.4576,90.5579
2.4581,92.0839
2.4586,94.8307
2.4591,96.3566
2.4596,99.7138
2.4601,105.8177
2.4606,109.7852
2.4611,109.4800
2.4616,109.1748
2.4621,112.5319
2.4626,117.4150
2.4631,121.6878
2.4636,127.1813
2.4641,135.1163
2.4646,142.7462
2.4651,146.7137
2.4656,147.0189
2.4661,145.7981
2.4666,145.1877
2.4671,146.1033
2.4676,150.3760
2.4681,154.6488
2.4686,155.5643
2.4691,154.3436
2.4696,154.9540
2.4701,157.3955
2.4706,158.3111
2.4711,158.3111
2.4716,160.4475
2.4721,163.8046
2.4726,163.4994
2.4731,158.9215
2.4736,154.6488
2.4741,151.5968
2.4746,147.0189
2.4751,140.9150
2.4756,136.6423
2.4761,132.6748
2.4766,124.4345
2.4771,111.0060
2.4776,98.1878
2.4781,87.2008
2.4786,74.9930
2.4791,61.5645
2.4796,50.5775
2.4801,40.8112
2.4806,27.9931
2.4811,13.0386
2.4816,1.4412
2.4821,-6.1887
2.4826,-14.1237
2.4831,-22.0588
2.4836,-26.6367
2.4841,-30.2990
2.4846,-36.4029
2.4851,-42.2016
2.4856,-45.2536
2.4861,-49.8315
2.4866,-58.0717
2.4871,-61.7341
2.4876,-51.9679
2.4881,-38.8445
2.4886,-39.1497
2.4891,-53.7990
2.4896,-65.7016
2.4901,-66.6172
2.4906,-62.6497
2.4911,-60.8185
2.4916,-58.3769
2.4921,-52.8834
2.4926,-48.6107
2.4931,-48.3055
2.4936,-48.0003
2.4941,-45.2536
2.4946,-42.2016
2.4951,-40.3705
2.4956,-37.9289
2.4961,-35.7925
2.4966,-36.7081
2.4971,-39.7601
2.4976,-40.6757
2.4981,-39.7601
2.4986,-39.7601
2.4991,-39.1497
2.4996,-34.5718
2.5001,-28.4679
2.5006,-27.2471
2.5011,-29.3835
2.5016,-29.3835
2.5021,-27.5523
2.5026,-28.7731
2.5031,-32.4354
2.5036,-35.1822
2.5041,-37.6237
2.5046,-45.2536
2.5051,-58.6821
2.5056,-73.0263
2.5061,-84.6237
2.5066,-95.0003
2.5071,-105.0717
2.5076,-113.9223
2.5081,-121.2470
2.5086,-128.5716
2.5091,-135.8963
2.5096,-142.6106
2.5101,-151.1560
2.5106,-161.8378
2.5111,-171.6041
2.5116,-179.5391
2.5121,-189.6105
2.5126,-204.2599
2.5131,-219.2144
2.5136,-231.1170
2.5141,-242.7144
2.5146,-255.8377
2.5151,-267.1299
2.5156,-272.9286
2.5161,-278.7273
2.5166,-290.9351
2.5171,-305.5844
2.5176,-315.6558
2.5181,-321.4545
2.5186,-327.8636
2.5191,-333.3571
2.5196,-333.3571
2.5201,-330.9155
2.5206,-331.8311
2.5211,-335.7987
2.5216,-336.7142
2.5221,-333.9675
2.5226,-332.7467
2.5231,-332.7467
2.5236,-329.6948
2.5241,-324.2013
2.5246,-322.0649
2.5251,-323.8961
2.5256,-325.4220
2.5261,-324.5065
2.5266,-323.2857
2.5271,-321.4545
2.5276,-317.7922
2.5281,-312.9091
2.5286,-310.1623
2.5291,-308.3312
2.5296,-304.0584
2.5301,-297.9545
2.5306,-291.5455
2.5310,-283.6104
2.5315,-272.9286
2.5320,-263.4676
2.5325,-259.8052
2.5330,-258.5845
2.5335,-253.7014
2.5340,-246.0715
2.5345,-239.9676
2.5350,-233.2533
2.5355,-222.8767
2.5360,-212.1949
2.5365,-205.7858
2.5370,-200.2923
2.5375,-190.5261
2.5380,-178.6235
2.5385,-170.3833
2.5390,-163.0586
2.5395,-151.4612
2.5400,-138.3379
2.5405,-131.6236
2.5410,-128.5716
2.5415,-118.8054
2.5420,-102.6301
2.5425,-88.8964
2.5430,-77.6042
2.5435,-60.2081
2.5440,-36.4029
2.5445,-16.8705
2.5450,-6.4939
2.5455,-0.0848
2.5460,5.7139
2.5465,9.0710
2.5470,10.2918
2.5475,14.8697
2.5480,22.1944
2.5485,25.5515
2.5490,24.0256
2.5495,24.9411
2.5500,27.3827
2.5505,25.8567
2.5510,24.9411
2.5515,35.9281
2.5520,53.6294
2.5525,58.8177
2.5530,45.3892
2.5535,32.5710
2.5540,36.2333
2.5545,46.6099
2.5550,49.0515
2.5555,46.9151
2.5560,50.5775
2.5565,58.2073
2.5570,60.9541
2.5575,59.7333
2.5580,60.9541
2.5585,64.9216
2.5590,67.6684
2.5595,70.1099
2.5600,75.2982
2.5605,79.5709
2.5610,79.2657
2.5615,77.7398
2.5620,81.0969
2.5625,85.9800
2.5630,87.2008
2.5635,87.2008
2.5640,90.8631
2.5645,96.9670
2.5650,99.7138
2.5655,98.1878
2.5660,96.9670
2.5665,96.6618
2.5670,95.7462
2.5675,96.0514
2.5680,98.4930
2.5685,100.3242
2.5690,98.7982
2.5695,96.0514
2.5700,95.7462
2.5705,96.6618
2.5710,96.6618
2.5715,97.5774
2.5720,100.9345
2.5725,103.6813
2.5730,102.7657
2.5735,100.6294
2.5740,101.5449
2.5745,104.9021
2.5750,107.0384
2.5755,108.5644
2.5760,111.0060
2.5765,112.8371
2.5770,112.2267
2.5775,111.3112
2.5780,112.5319
2.5785,114.0579
2.5790,114.3631
2.5795,114.9735
2.5800,117.7202
2.5805,119.5514
2.5810,117.1099
2.5815,112.5319
2.5820,109.4800
2.5825,107.9540
2.5830,104.9021
2.5835,101.5449
2.5840,100.9345
2.5845,101.5449
2.5850,98.4930
2.5855,90.8631
2.5860,82.0125
2.5865,75.6034
2.5870,72.2463
2.5875,70.4151
2.5880,68.2787
2.5885,65.8372
2.5890,64.3112
2.5895,64.6164
2.5900,64.3112
2.5905,61.2593
2.5910,59.1229
2.5915,61.5645
2.5920,67.9736
2.5925,72.2463
2.5930,73.4671
2.5935,74.9930
2.5940,79.2657
2.5945,84.1489
2.5950,89.0320
2.5955,96.3566
2.5960,105.5125
2.5965,112.5319
2.5970,117.7202
2.5975,124.1293
2.5980,132.9800
2.5985,140.9150
2.5990,147.6293
2.5995,157.0903
2.6000,169.9085
2.6005,180.8955
2.6010,187.6098
2.6015,194.6292
2.6020,205.9214
2.6025,218.4344
2.6030,227.8954
2.6035,236.7461
2.6040,249.5642
2.6045,264.8239
2.6050,276.4213
2.6055,283.1356
2.6060,288.0187
2.6065,294.4278
2.6070,302.9732
2.6075,312.1291
2.6080,321.8953
2.6085,331.3563
2.6090,339.9018
2.6095,346.3109
2.6100,351.4992
2.6105,356.3823
2.6110,361.5706
2.6115,366.1485
2.6120,367.9797
2.6125,367.3693
2.6130,363.0965
2.6135,354.8563
2.6140,344.4797
2.6145,340.8174
2.6150,348.4472
2.6155,359.7394
2.6160,360.6550
2.6165,349.0576
2.6170,337.7654
2.6175,335.3239
2.6180,335.6290
2.6185,330.4407
2.6190,322.5057
2.6195,319.4537
2.6200,320.0641
2.6205,316.4018
2.6210,307.5512
2.6215,300.2265
2.6220,297.4797
2.6225,295.3434
2.6230,290.1551
2.6235,285.2720
2.6240,282.2200
2.6245,280.0837
2.6250,276.7265
2.6255,271.8434
2.6260,265.7395
2.6265,258.4149
2.6270,252.9214
2.6275,250.1746
2.6280,246.8175
2.6285,238.2720
2.6290,226.9798
2.6295,217.2136
2.6300,209.5838
2.6305,199.2071
2.6310,187.6098
2.6315,178.7591
2.6320,171.1293
2.6325,159.2267
2.6330,143.0514
2.6335,127.4865
2.6340,115.2787
2.6345,102.1553
2.6350,86.5904
2.6355,72.8567
2.6360,61.5645
2.6365,49.0515
2.6370,32.8762
2.6375,17.0061
2.6380,4.7983
2.6385,-6.1887
2.6390,-18.7017
2.6395,-30.6042
2.6400,-41.5912
2.6405,-54.7146
2.6410,-69.6691
2.6415,-82.7925
2.6420,-92.2535
2.6425,-102.3249
2.6430,-114.8379
2.6435,-125.2145
2.6440,-131.3184
2.6445,-136.8119
2.6450,-145.9677
2.6455,-157.8703
2.6460,-169.4677
2.6465,-179.5391
2.6470,-186.5586
2.6475,-188.6949
2.6480,-189.3053
2.6485,-193.8833
2.6490,-201.5131
2.6495,-207.0066
2.6500,-208.5326
2.6505,-210.0586
2.6510,-213.4157
2.6515,-214.9417
2.6520,-213.7209
2.6525,-214.0261
2.6530,-217.3832
2.6535,-220.7404
2.6540,-222.8767
2.6545,-224.7079
2.6550,-225.6235
2.6555,-223.1819
2.6560,-219.2144
2.6565,-218.6040
2.6570,-220.7404
2.6575,-221.3507
2.6580,-219.5196
2.6585,-217.6884
2.6590,-216.1624
2.6595,-212.5001
2.6600,-207.6170
2.6605,-205.4806
2.6610,-206.0910
2.6615,-205.7858
2.6620,-203.0391
2.6625,-200.5975
2.6630,-199.0716
2.6635,-194.7988
2.6640,-186.8638
2.6645,-179.5391
2.6650,-175.5716
2.6655,-175.5716
2.6660,-176.1820
2.6665,-174.3508
2.6670,-168.8573
2.6675,-161.8378
2.6680,-156.9547
2.6685,-153.2924
2.6690,-146.8833
2.6695,-140.1690
2.6700,-137.4223
2.6705,-138.0327
2.6710,-134.6755
2.6715,-126.4353
2.6720,-119.7210
2.6725,-117.2795
2.6730,-114.8379
2.6735,-109.3444
2.6740,-104.7665
2.6745,-102.3249
2.6750,-97.1366
2.6755,-89.2016
2.6760,-84.0133
2.6765,-83.0977
2.6770,-80.6561
2.6775,-76.0782
2.6780,-75.4678
2.6785,-77.2990
2.6790,-69.6691
2.6795,-52.5782
2.6800,-44.9484
2.6805,-55.6302
2.6810,-69.9743
2.6815,-70.8899
2.6820,-62.9548
2.6825,-59.9029
2.6830,-61.7341
2.6835,-57.7665
2.6840,-48.9159
2.6845,-44.6432
2.6850,-45.8640
2.6855,-46.1692
2.6860,-45.2536
2.6865,-45.8640
2.6870,-46.4744
2.6875,-43.4224
2.6880,-39.4549
2.6885,-40.6757
2.6890,-44.6432
2.6895,-45.8640
2.6900,-45.8640
2.6905,-48.3055
2.6910,-50.4419
2.6915,-49.2211
2.6920,-47.3899
2.6925,-51.0523
2.6930,-58.0717
2.6935,-62.0393
2.6940,-63.8704
2.6945,-67.8380
2.6950,-72.4159
2.6955,-73.9418
2.6960,-74.2470
2.6965,-78.8250
2.6970,-85.8444
2.6975,-90.7275
2.6980,-93.4743
2.6985,-97.4418
2.6990,-101.7145
2.6995,-103.5457
2.7000,-105.3769
2.7005,-112.3963
2.7010,-123.3833
2.7015,-132.2340
2.7020,-137.1171
2.7025,-140.1690
2.7030,-143.2210
2.7035,-145.0521
2.7040,-144.7470
2.7045,-145.3573
2.7050,-149.6301
2.7055,-157.5651
2.7060,-168.2469
2.7065,-177.7079
2.7070,-182.8963
2.7075,-185.0326
2.7080,-189.6105
2.7085,-198.4612
2.7090,-207.3118
2.7095,-213.1105
2.7100,-218.9092
2.7105,-226.5391
2.7110,-232.6429
2.7115,-235.0845
2.7120,-238.4416
2.7125,-247.5975
2.7130,-257.6689
2.7135,-263.4676
2.7140,-267.1299
2.7145,-273.2338
2.7150,-279.9481
2.7155,-283.9156
2.7160,-286.6624
2.7165,-293.3766
2.7170,-301.6169
2.7175,-307.1104
2.7180,-310.1623
2.7185,-314.7402
2.7190,-319.9285
2.7195,-322.0649
2.7200,-322.6753
2.7205,-326.6428
2.7210,-333.3571
2.7215,-337.9350
2.7220,-339.4610
2.7225,-341.2921
2.7230,-344.3441
2.7235,-345.2597
2.7240,-343.7337
2.7245,-344.3441
2.7250,-347.7012
2.7255,-351.0584
2.7260,-353.4999
2.7265,-354.7207
2.7270,-351.6688
2.7275,-342.8181
2.7280,-333.3571
2.7285,-330.9155
2.7290,-334.5779
2.7295,-336.1038
2.7300,-332.7467
2.7305,-329.6948
2.7310,-328.1688
2.7315,-324.8117
2.7320,-317.4870
2.7325,-311.3831
2.7330,-308.9415
2.7335,-306.5000
2.7340,-301.6169
2.7345,-296.4286
2.7350,-290.9351
2.7355,-283.0000
2.7360,-272.6234
2.7365,-263.7728
2.7370,-257.3637
2.7375,-250.3442
2.7380,-241.1884
2.7385,-232.3377
2.7390,-222.8767
2.7395,-210.9741
2.7400,-198.1560
2.7405,-187.4742
2.7410,-178.3183
2.7415,-166.1106
2.7420,-153.2924
2.7425,-143.5262
2.7430,-131.3184
2.7435,-108.7340
2.7440,-81.2665
2.7445,-64.1756
2.7450,-61.7341
2.7455,-61.1237
2.7460,-51.6627
2.7465,-36.4029
2.7470,-22.0588
2.7475,-8.0199
2.7480,8.4606
2.7485,25.5515
2.7490,41.4216
2.7495,57.2917
2.7500,73.1619
2.7505,85.0644
2.7510,94.5255
2.7515,108.8696
2.7520,128.7072
2.7525,146.4085
2.7530,158.3111
2.7535,169.9085
2.7540,185.7786
2.7545,201.6487
2.7550,214.4669
2.7555,228.5058
2.7560,244.9863
2.7565,259.3304
2.7570,268.7915
2.7575,278.8629
2.7580,293.5122
2.7585,307.2460
2.7590,316.4018
2.7595,326.7784
2.7600,342.6485
2.7605,357.6030
2.7610,365.2329
2.7615,369.8108
2.7620,378.0511
2.7625,388.4277
2.7630,395.4472
2.7635,400.9407
2.7640,409.7913
2.7645,421.0835
2.7650,428.7133
2.7655,431.7653
2.7660,434.2068
2.7665,437.2588
2.7670,439.7003
2.7675,443.3627
2.7680,449.4666
2.7685,454.9601
2.7690,457.0964
2.7695,456.4860
2.7700,457.0964
2.7705,458.9276
2.7710,460.4536
2.7715,461.9795
2.7720,464.7263
2.7725,466.2523
2.7730,464.1159
2.7735,461.6743
2.7740,461.9795
2.7745,462.8951
2.7750,461.6743
2.7755,460.4536
2.7760,461.3691
2.7765,461.6743
2.7770,458.3172
2.7775,453.4341
2.7780,450.0769
2.7785,448.2458
2.7790,444.8886
2.7795,441.8367
2.7800,440.6159
2.7805,437.8692
2.7810,431.7653
2.7815,425.0510
2.7820,421.3887
2.7825,419.2523
2.7830,414.3692
2.7835,409.1809
2.7840,407.6549
2.7845,408.8757
2.7850,407.3497
2.7855,400.6355
2.7860,391.1744
2.7865,382.0186
2.7870,374.9991
2.7875,371.0316
2.7880,368.8952
2.7885,364.9277
2.7890,358.2134
2.7895,352.4147
2.7900,348.7524
2.7905,344.7849
2.7910,339.9018
2.7915,337.1550
2.7920,335.6290
2.7925,330.7459
2.7930,322.5057
2.7935,315.7914
2.7940,312.1291
2.7945,306.3304
2.7950,297.1746
2.7955,289.8499
2.7960,286.4927
2.7965,281.6096
2.7970,270.3174
2.7975,257.4993
2.7980,247.7331
2.7985,238.5772
2.7990,227.5902
2.7995,218.1292
2.8000,211.1097
2.8005,201.6487
2.8010,188.2201
2.8015,175.0968
2.8020,165.9410
2.8025,156.1747
2.8030,143.6618
2.8035,132.6748
2.8040,125.3501
2.8045,114.9735
2.8050,100.6294
2.8055,86.8956
2.8060,75.2982
2.8065,59.7333
2.8070,42.0320
2.8075,32.8762
2.8080,33.7918
2.8085,28.6035
2.8090,5.7139
2.8095,-24.5004
2.8100,-46.1692
2.8105,-59.2925
2.8110,-73.3315
2.8115,-90.1172
2.8120,-105.9873
2.8125,-122.4678
2.8130,-142.9158
2.8135,-164.2794
2.8140,-181.9807
2.8145,-198.7664
2.8150,-218.6040
2.8155,-239.0520
2.8160,-256.7533
2.8165,-274.4546
2.8170,-296.4286
2.8175,-320.5389
2.8180,-341.9025
2.8185,-362.0454
2.8190,-384.9349
2.8195,-409.6557
2.8200,-433.4609
2.8205,-457.8764
2.8210,-484.1231
2.8215,-509.4543
2.8220,-531.1231
2.8225,-550.0451
2.8230,-568.3568
2.8235,-584.8373
2.8240,-597.9606
2.8245,-609.2528
2.8250,-622.6814
2.8255,-638.8567
2.8260,-654.7268
2.8265,-666.6294
2.8270,-673.3437
2.8275,-676.7008
2.8280,-679.1424
2.8285,-681.2787
2.8290,-680.3631
2.8295,-676.3956
2.8300,-673.9541
2.8305,-674.2592
2.8310,-672.1229
2.8315,-662.0515
2.8320,-648.6229
2.8325,-640.0775
2.8330,-635.1944
2.8335,-626.3437
2.8340,-612.6100
2.8345,-598.8762
2.8350,-585.1425
2.8355,-568.6620
2.8360,-550.3503
2.8365,-536.0062
2.8370,-524.4088
2.8375,-509.7595
2.8380,-491.7530
2.8385,-474.3569
2.8390,-458.1816
2.8395,-439.5647
2.8400,-418.2011
2.8405,-399.2791
2.8410,-384.6298
2.8415,-369.0648
2.8420,-350.1428
2.8425,-330.9155
2.8430,-312.9091
2.8435,-293.6818
2.8440,-272.0130
2.8445,-250.9546
2.8450,-232.9481
2.8455,-216.1624
2.8460,-199.3767
2.8465,-182.2859
2.8470,-163.6690
2.8475,-142.0002
2.8480,-120.0262
2.8485,-101.7145
2.8490,-85.8444
2.8495,-68.1432
2.8500,-48.3055
2.8505,-28.7731
2.8510,-10.1562
2.8515,9.6814
2.8520,31.3502
2.8525,50.8827
2.8530,68.2787
2.8535,85.9800
2.8540,105.5125
2.8545,124.7397
2.8550,143.9670
2.8555,164.4150
2.8560,184.5578
2.8565,202.2591
2.8570,217.2136
2.8575,233.0837
2.8580,249.8694
2.8585,266.3499
2.8590,281.6096
2.8595,297.1746
2.8600,312.1291
2.8605,324.9472
2.8610,334.7135
2.8615,343.5641
2.8620,353.3303
2.8625,362.7913
2.8630,371.6420
2.8635,379.5770
2.8640,387.8173
2.8645,396.9731
2.8650,403.9926
2.8655,405.8238
2.8660,404.2978
2.8665,404.9082
2.8670,409.1809
2.8675,413.4536
2.8680,414.3692
2.8685,414.6744
2.8690,415.2848
2.8695,412.2328
2.8700,406.4341
2.8705,407.6549
2.8710,418.9471
2.8715,427.1874
2.8720,418.3367
2.8725,399.1095
2.8730,387.8173
2.8735,388.1225
2.8740,387.5121
2.8745,380.1874
2.8750,373.4732
2.8755,373.4732
2.8760,371.9472
2.8765,364.0121
2.8770,355.1615
2.8775,350.2784
2.8780,344.7849
2.8785,335.6290
2.8790,327.6940
2.8795,324.9472
2.8800,321.2849
2.8805,311.5187
2.8810,300.5317
2.8815,294.7330
2.8820,289.5447
2.8825,280.3889
2.8830,270.9278
2.8835,266.0447
2.8840,263.6032
2.8845,256.8889
2.8850,247.4279
2.8855,238.5772
2.8860,229.7266
2.8865,219.3500
2.8870,210.4993
2.8875,205.3110
2.8880,199.8175
2.8885,189.4409
2.8890,177.5383
2.8895,168.6877
2.8900,161.9734
2.8905,154.0384
2.8910,146.7137
2.8915,141.8306
2.8920,136.6423
2.8925,127.7917
2.8930,118.3306
2.8935,111.6164
2.8940,106.4280
2.8945,100.0190
2.8950,93.9151
2.8955,91.1683
2.8960,88.1164
2.8965,80.7917
2.8970,72.2463
2.8975,66.4476
2.8980,62.1749
2.8985,56.6814
2.8990,52.1034
2.8995,49.9671
2.9000,47.5255
2.9005,41.7268
2.9010,34.7074
2.9015,30.4346
2.9020,27.3827
2.9025,23.1100
2.9030,19.7528
2.9035,19.1424
2.9040,19.4476
2.9045,18.5321
2.9050,14.8697
2.9055,8.7658
2.9060,1.7464
2.9065,-2.5264
2.9070,-2.2212
2.9075,-1.3056
2.9080,-3.7471
2.9085,-6.7991
2.9090,-6.7991
2.9095,-8.0199
2.9100,-15.3445
2.9105,-21.4484
2.9110,-17.7861
2.9115,-15.0393
2.9120,-33.0458
2.9125,-68.1432
2.9130,-91.9483
2.9135,-88.8964
2.9140,-75.4678
2.9145,-73.6367
2.9150,-78.8250
2.9155,-75.1626
2.9160,-63.8704
2.9165,-58.6821
2.9170,-61.1237
2.9175,-61.1237
2.9180,-55.9354
2.9185,-52.5782
2.9190,-52.2730
2.9195,-49.2211
2.9200,-42.2016
2.9205,-37.6237
2.9210,-38.2341
2.9215,-37.9289
2.9220,-33.9614
2.9225,-30.2990
2.9230,-29.9939
2.9235,-29.0783
2.9240,-24.1952
2.9245,-18.3965
2.9250,-16.2601
2.9255,-16.5653
2.9260,-16.5653
2.9265,-17.1757
2.9270,-18.3965
2.9275,-16.8705
2.9280,-11.6822
2.9285,-8.0199
2.9290,-9.8510
2.9295,-14.1237
2.9300,-15.0393
2.9305,-14.1237
2.9310,-15.6497
2.9315,-18.0913
2.9320,-16.2601
2.9325,-12.9030
2.9330,-17.1757
2.9335,-27.2471
2.9340,-30.9094
2.9345,-21.7536
2.9350,-10.7666
2.9355,-13.2082
2.9360,-27.2471
2.9365,-39.7601
2.9370,-43.4224
2.9375,-42.5068
2.9380,-44.6432
2.9385,-50.4419
2.9390,-55.3250
2.9395,-56.8510
2.9400,-57.4614
2.9405,-61.1237
2.9410,-66.9224
2.9415,-72.1107
2.9420,-76.0782
2.9425,-80.3509
2.9430,-86.7600
2.9435,-91.3379
2.9440,-91.9483
2.9445,-91.0327
2.9450,-94.6951
2.9455,-102.3249
2.9460,-110.2600
2.9465,-116.9743
2.9470,-122.7730
2.9475,-127.0457
2.9480,-130.4028
2.9485,-134.9807
2.9490,-142.9158
2.9495,-151.7664
2.9500,-158.1755
2.9505,-163.3638
2.9510,-170.3833
2.9515,-177.4028
2.9520,-182.2859
2.9525,-186.5586
2.9530,-193.2729
2.9535,-201.2079
2.9540,-207.6170
2.9545,-211.8897
2.9550,-216.1624
2.9555,-219.5196
2.9560,-221.9611
2.9565,-225.6235
2.9570,-232.0326
2.9575,-238.1364
2.9580,-241.7988
2.9585,-244.5455
2.9590,-248.5130
2.9595,-251.5650
2.9600,-251.8702
2.9605,-252.7858
2.9610,-257.0585
2.9615,-262.2468
2.9620,-264.6884
2.9625,-265.2987
2.9630,-266.8247
2.9635,-267.4351
2.9640,-264.9935
2.9645,-261.6364
2.9650,-261.0260
2.9655,-262.2468
2.9660,-262.2468
2.9665,-260.4156
2.9670,-257.3637
2.9675,-252.7858
2.9680,-247.2923
2.9685,-243.9351
2.9690,-243.0196
2.9695,-241.4936
2.9700,-237.2209
2.9705,-232.9481
2.9710,-228.9806
2.9715,-223.1819
2.9720,-215.5521
2.9725,-210.0586
2.9730,-208.2274
2.9735,-205.7858
2.9740,-199.9871
2.9745,-194.7988
2.9750,-191.7469
2.9755,-187.1690
2.9760,-179.5391
2.9765,-173.4352
2.9770,-171.6041
2.9775,-169.7729
2.9780,-164.5846
2.9785,-159.3963
2.9790,-156.3443
2.9795,-152.0716
2.9800,-145.0521
2.9805,-140.4742
2.9810,-141.0846
2.9815,-141.6950
2.9820,-137.7275
2.9825,-131.9288
2.9830,-127.6561
2.9835,-123.6885
2.9840,-116.6691
2.9845,-109.6496
2.9850,-105.0717
2.9855,-102.6301
2.9860,-99.5782
2.9865,-96.2210
2.9870,-91.6431
2.9875,-84.3185
2.9880,-75.4678
2.9885,-68.7535
2.9890,-64.4808
2.9895,-58.6821
2.9900,-51.3575
2.9905,-45.5588
2.9910,-40.3705
2.9915,-31.8250
2.9920,-21.1432
2.9925,-14.1237
2.9930,-10.1562
2.9935,-4.9679
2.9940,2.6619
2.9945,9.0710
2.9950,15.1749
2.9955,24.0256
2.9960,33.7918
2.9965,39.2853
2.9970,42.3372
2.9975,49.6619
2.9980,58.2073
2.9985,61.2593
2.9990,64.9216
2.9995,80.7917
3.0000,102.7657
3.0005,111.3112
3.0010,101.8501
3.0015,93.9151
3.0020,100.9345
3.0025,113.4475
3.0030,120.1618
3.0035,124.4345
3.0040,135.1163
3.0045,148.5449
3.0050,157.0903
3.0055,162.5838
3.0060,171.1293
3.0065,181.2007
3.0070,190.3565
3.0075,200.4279
3.0080,213.5513
3.0085,225.1487
3.0090,231.5578
3.0095,236.7461
3.0100,244.9863
3.0105,254.7525
3.0110,263.2980
3.0115,271.5382
3.0120,280.0837
3.0125,287.1031
3.0130,291.6811
3.0135,297.4797
3.0140,304.8044
3.0145,311.2135
3.0150,317.3174
3.0155,325.2524
3.0160,334.1031
3.0165,339.9018
3.0170,342.3433
3.0175,346.0057
3.0180,351.8044
3.0185,356.0771
3.0190,358.8238
3.0195,363.0965
3.0200,368.2848
3.0205,368.8952
3.0210,365.2329
3.0215,362.4862
3.0220,362.4862
3.0225,360.9602
3.0230,356.3823
3.0235,353.3303
3.0240,352.7199
3.0245,349.3628
3.0250,341.1225
3.0255,331.0511
3.0260,322.2005
3.0265,314.8758
3.0270,309.0771
3.0275,306.3304
3.0280,304.4992
3.0285,300.2265
3.0290,294.1226
3.0295,289.5447
3.0300,286.1876
3.0305,281.3044
3.0310,276.4213
3.0315,276.1161
3.0320,278.8629
3.0325,279.1681
3.0330,276.7265
3.0335,276.7265
3.0340,280.6941
3.0345,285.2720
3.0350,290.4603
3.0355,298.7005
3.0360,308.1616
3.0365,314.2654
3.0370,318.2330
3.0375,324.0317
3.0380,332.2719
3.0385,339.9018
3.0390,347.8368
3.0395,358.2134
3.0400,367.9797
3.0405,371.9472
3.0410,371.9472
3.0415,373.4732
3.0420,376.5251
3.0425,376.8303
3.0430,373.1680
3.0435,370.1160
3.0440,367.9797
3.0445,363.0965
3.0450,355.1615
3.0455,347.8368
3.0460,340.5122
3.0465,331.0511
3.0470,319.7589
3.0475,308.7719
3.0480,298.3953
3.0485,285.5772
3.0490,270.6226
3.0495,256.2785
3.0500,243.1551
3.0505,229.1162
3.0510,215.3825
3.0515,203.4799
3.0520,192.1877
3.0525,178.4539
3.0530,162.8890
3.0535,147.3241
3.0540,132.9800
3.0545,119.2462
3.0550,107.3436
3.0555,96.9670
3.0560,85.6748
3.0565,72.2463
3.0570,57.9021
3.0575,44.4736
3.0580,31.0450
3.0585,18.5321
3.0590,7.8503
3.0595,-1.9160
3.0600,-14.4289
3.0605,-28.4679
3.0610,-41.8964
3.0615,-57.4614
3.0620,-76.0782
3.0625,-90.1172
3.0630,-94.0847
3.0635,-96.5262
3.0640,-113.9223
3.0645,-145.0521
3.0650,-173.1300
3.0655,-188.6949
3.0660,-201.5131
3.0665,-221.3507
3.0670,-244.2403
3.0675,-261.3312
3.0680,-276.2857
3.0685,-294.5974
3.0690,-314.7402
3.0695,-332.1363
3.0700,-348.6168
3.0705,-367.2337
3.0710,-385.2401
3.0715,-399.8895
3.0720,-414.2336
3.0725,-430.7141
3.0730,-446.5842
3.0735,-458.4868
3.0740,-468.5582
3.0745,-479.8504
3.0750,-488.7010
3.0755,-493.5842
3.0760,-499.3829
3.0765,-509.7595
3.0770,-519.8309
3.0775,-525.0192
3.0780,-528.9867
3.0785,-535.3958
3.0790,-542.1101
3.0795,-544.8568
3.0800,-546.0776
3.0805,-551.2659
3.0810,-558.5906
3.0815,-563.7789
3.0820,-566.8308
3.0825,-570.1880
3.0830,-572.9347
3.0835,-572.9347
3.0840,-572.0191
3.0845,-573.8503
3.0850,-577.2074
3.0855,-579.0386
3.0860,-578.7334
3.0865,-576.9022
3.0870,-572.0191
3.0875,-564.3893
3.0880,-558.2854
3.0885,-554.6230
3.0890,-549.7399
3.0895,-541.4997
3.0900,-532.6490
3.0905,-525.9348
3.0910,-517.6945
3.0915,-505.4867
3.0920,-493.8894
3.0925,-487.1751
3.0930,-481.9868
3.0934,-474.0517
3.0939,-464.8959
3.0944,-457.5712
3.0949,-449.3310
3.0954,-437.4284
3.0959,-423.3894
3.0964,-411.7921
3.0969,-399.5843
3.0974,-381.5778
3.0979,-362.0454
3.0984,-349.2272
3.0989,-340.9870
3.0994,-328.7792
3.0999,-311.6883
3.1004,-296.7338
3.1009,-286.9675
3.1014,-275.9805
3.1019,-260.1104
3.1024,-242.7144
3.1029,-227.1494
3.1034,-210.6689
3.1039,-191.7469
3.1044,-174.0456
3.1049,-160.3119
3.1054,-147.7989
3.1059,-134.6755
3.1064,-122.4678
3.1069,-110.2600
3.1074,-94.6951
3.1079,-75.7730
3.1084,-59.9029
3.1089,-50.4419
3.1094,-41.5912
3.1099,-29.3835
3.1104,-16.2601
3.1109,-5.2731
3.1114,6.6295
3.1119,21.2788
3.1124,32.5710
3.1129,37.4541
3.1134,41.7268
3.1139,50.5775
3.1144,60.0385
3.1149,65.5320
3.1154,71.6359
3.1159,82.3177
3.1164,92.3891
3.1169,96.6618
3.1174,98.7982
3.1179,104.5969
3.1184,111.0060
3.1189,114.6683
3.1194,120.1618
3.1199,130.5384
3.1204,139.3890
3.1209,141.5254
3.1214,143.0514
3.1219,149.4605
3.1224,155.5643
3.1229,157.3955
3.1234,161.3630
3.1239,172.6552
3.1244,181.8111
3.1249,180.5903
3.1254,179.9799
3.1259,193.7136
3.1264,212.6357
3.1269,217.8240
3.1274,209.8890
3.1279,208.0578
3.1284,219.0448
3.1289,230.0318
3.1294,233.9993
3.1299,238.2720
3.1304,247.4279
3.1309,257.1941
3.1314,264.5187
3.1319,272.4538
3.1324,281.3044
3.1329,286.7979
3.1334,289.2395
3.1339,293.8174
3.1344,301.1421
3.1349,306.6356
3.1354,311.5187
3.1359,319.4537
3.1364,327.9992
3.1369,331.0511
3.1374,330.1355
3.1379,331.0511
3.1384,335.0187
3.1389,336.5446
3.1394,335.6290
3.1399,336.2394
3.1404,335.9342
3.1409,330.4407
3.1414,320.6745
3.1419,313.9602
3.1424,309.6875
3.1429,302.3629
3.1434,292.2914
3.1439,284.6616
3.1444,277.9473
3.1449,264.5187
3.1454,242.8499
3.1459,219.6552
3.1464,198.5968
3.1469,177.5383
3.1474,154.0384
3.1479,130.5384
3.1484,107.6488
3.1489,83.8437
3.1494,58.8177
3.1499,35.0126
3.1504,13.3438
3.1509,-7.4095
3.1514,-27.5523
3.1519,-46.1692
3.1524,-63.8704
3.1529,-81.8769
3.1534,-98.0522
3.1539,-111.1756
3.1544,-122.7730
3.1549,-134.0651
3.1554,-142.6106
3.1559,-147.4937
3.1564,-152.0716
3.1569,-158.4807
3.1574,-164.2794
3.1579,-166.7209
3.1584,-167.6365
3.1589,-170.0781
3.1594,-171.2989
3.1599,-170.6885
3.1604,-170.3833
3.1609,-173.1300
3.1614,-175.2664
3.1619,-173.7404
3.1624,-170.9937
3.1629,-168.8573
3.1634,-165.1950
3.1639,-157.5651
3.1644,-148.7145
3.1649,-142.0002
3.1654,-136.2015
3.1659,-129.1820
3.1664,-120.9418
3.1669,-110.8704
3.1674,-97.4418
3.1679,-81.8769
3.1684,-69.3639
3.1689,-61.4289
3.1694,-53.4938
3.1699,-42.2016
3.1704,-29.9939
3.1709,-18.7017
3.1714,-6.4939
3.1719,7.5451
3.1724,20.0580
3.1729,29.5191
3.1734,38.9801
3.1739,50.8827
3.1744,61.8697
3.1749,69.4995
3.1754,76.8242
3.1759,85.9800
3.1764,92.9995
3.1769,95.7462
3.1774,97.2722
3.1779,101.2397
3.1784,105.8177
3.1789,108.5644
3.1794,112.2267
3.1799,118.0254
3.1804,122.6034
3.1809,123.5189
3.1814,124.4345
3.1819,128.4020
3.1824,132.6748
3.1829,134.5059
3.1834,137.8631
3.1839,144.8825
3.1844,151.2916
3.1849,151.9020
3.1854,150.3760
3.1859,151.2916
3.1864,153.1228
3.1869,152.8176
3.1874,153.7332
3.1879,159.2267
3.1884,163.4994
3.1889,158.9215
3.1894,151.2916
3.1899,153.7332
3.1904,164.7202
3.1909,170.5189
3.1914,161.6682
3.1919,145.4929
3.1924,132.9800
3.1929,126.2657
3.1934,121.3826
3.1939,116.1943
3.1944,112.5319
3.1949,109.7852
3.1954,105.8177
3.1959,100.0190
3.1964,92.9995
3.1969,86.2852
3.1974,80.1813
3.1979,74.3826
3.1984,67.9736
3.1989,62.4801
3.1994,59.1229
3.1999,57.2917
3.2004,54.2398
3.2009,49.3567
3.2014,45.0840
3.2019,42.3372
3.2024,39.2853
3.2029,35.3177
3.2034,32.2658
3.2039,30.4346
3.2044,26.4671
3.2049,19.7528
3.2054,12.4282
3.2059,6.6295
3.2064,0.2204
3.2069,-6.4939
3.2074,-12.5978
3.2079,-17.4809
3.2084,-23.5848
3.2089,-31.5198
3.2094,-39.1497
3.2099,-45.8640
3.2104,-53.1886
3.2109,-60.8185
3.2114,-67.8380
3.2119,-74.5522
3.2124,-83.0977
3.2129,-92.8639
3.2134,-101.4093
3.2139,-110.5652
3.2144,-122.1626
3.2149,-132.8444
3.2154,-137.4223
3.2159,-139.2535
3.2164,-145.3573
3.2169,-156.0391
3.2174,-164.5846
3.2179,-167.6365
3.2184,-170.0781
3.2189,-174.6560
3.2194,-178.0131
3.2199,-178.9287
3.2204,-180.7599
3.2209,-184.1170
3.2214,-186.2534
3.2219,-185.0326
3.2224,-183.2014
3.2229,-181.3703
3.2234,-177.4028
3.2239,-171.6041
3.2244,-169.1625
3.2249,-171.6041
3.2254,-176.1820
3.2259,-179.8443
3.2264,-182.2859
3.2269,-182.8963
3.2274,-179.8443
3.2279,-175.8768
3.2284,-174.0456
3.2289,-173.4352
3.2294,-170.6885
3.2299,-164.5846
3.2304,-156.6495
3.2309,-146.2729
3.2314,-131.6236
3.2319,-115.7535
3.2324,-102.0197
3.2329,-87.6756
3.2334,-69.3639
3.2339,-48.3055
3.2344,-28.4679
3.2349,-11.0718
3.2354,6.3243
3.2359,22.1944
3.2364,32.8762
3.2369,39.2853
3.2374,46.3047
3.2379,54.2398
3.2384,61.5645
3.2389,69.4995
3.2394,82.0125
3.2399,97.2722
3.2404,111.0060
3.2409,124.1293
3.2414,141.8306
3.2419,165.6358
3.2424,189.7461
3.2429,212.3305
3.2434,235.8305
3.2439,260.5512
3.2444,282.8304
3.2449,300.5317
3.2454,316.4018
3.2459,331.3563
3.2464,343.2589
3.2469,352.4147
3.2474,358.8238
3.2479,361.5706
3.2484,359.4342
3.2489,356.0771
3.2494,355.4667
3.2499,353.6355
3.2504,346.0057
3.2509,338.0706
3.2514,336.5446
3.2519,335.9342
3.2524,324.3369
3.2529,306.9408
3.2534,300.8369
3.2539,307.2460
3.2544,306.3304
3.2549,286.4927
3.2554,261.1616
3.2559,246.8175
3.2564,239.7980
3.2569,228.8110
3.2574,215.3825
3.2579,206.2266
3.2584,201.3435
3.2589,194.9344
3.2594,188.8305
3.2599,184.8630
3.2604,178.1487
3.2609,166.5513
3.2614,158.3111
3.2619,156.4799
3.2624,152.5124
3.2629,143.3566
3.2634,139.3890
3.2639,143.9670
3.2644,144.8825
3.2649,134.8111
3.2654,125.3501
3.2659,124.7397
3.2664,124.7397
3.2669,119.2462
3.2674,118.0254
3.2679,123.8241
3.2684,121.3826
3.2689,105.8177
3.2694,98.7982
3.2699,107.3436
3.2704,103.0709
3.2709,73.1619
3.2714,61.2593
3.2719,109.1748
3.2724,183.0318
3.2729,209.5838
3.2734,175.4020
3.2739,133.5903
3.2744,120.7722
3.2749,115.8891
3.2754,94.8307
3.2759,68.5839
3.2764,53.6294
3.2769,41.4216
3.2774,20.0580
3.2779,-3.4419
3.2784,-18.3965
3.2789,-30.9094
3.2794,-48.3055
3.2799,-66.3120
3.2804,-79.1302
3.2809,-92.2535
3.2814,-109.9548
3.2819,-127.0457
3.2824,-139.5586
3.2829,-151.4612
3.2834,-164.8898
3.2839,-175.8768
3.2844,-182.8963
3.2849,-192.0521
3.2854,-206.3962
3.2859,-221.6559
3.2864,-233.2533
3.2869,-242.7144
3.2874,-250.9546
3.2879,-257.3637
3.2884,-262.8572
3.2889,-268.9611
3.2894,-275.6754
3.2899,-282.3896
3.2904,-291.2403
3.2909,-302.5325
3.2914,-310.7727
3.2919,-314.4350
3.2924,-319.3182
3.2929,-328.7792
3.2934,-337.9350
3.2939,-341.5973
3.2944,-344.0389
3.2949,-349.5324
3.2954,-355.6363
3.2959,-357.4675
3.2964,-358.6882
3.2969,-364.1817
3.2974,-371.2012
3.2979,-374.8635
3.2984,-376.9999
3.2989,-381.5778
3.2994,-385.8505
3.2999,-386.1557
3.3004,-386.4609
3.3009,-390.7336
3.3014,-394.3960
3.3019,-391.9544
3.3024,-387.6817
3.3029,-389.2077
3.3034,-393.1752
3.3039,-391.6492
3.3044,-384.9349
3.3049,-380.9674
3.3054,-381.2726
3.3059,-381.5778
3.3064,-380.3570
3.3069,-377.3051
3.3074,-371.5064
3.3079,-361.1298
3.3084,-350.1428
3.3089,-341.5973
3.3094,-333.3571
3.3099,-322.6753
3.3104,-311.6883
3.3109,-302.2273
3.3114,-289.7143
3.3119,-271.7078
3.3124,-254.0065
3.3129,-240.8832
3.3134,-228.3702
3.3139,-210.9741
3.3144,-191.7469
3.3149,-174.3508
3.3154,-155.1236
3.3159,-131.3184
3.3164,-108.1236
3.3169,-89.8120
3.3174,-69.6691
3.3179,-43.7276
3.3184,-19.0069
3.3189,0.5256
3.3194,28.2983
3.3199,72.5515
3.3204,118.9410
3.3209,147.0189
3.3214,161.0578
3.3219,183.0318
3.3224,217.8240
3.3229,250.7850
3.3234,273.3694
3.3239,295.9538
3.3244,325.2524
3.3249,351.4992
3.3254,365.2329
3.3259,372.2524
3.3264,382.6290
3.3269,396.6679
3.3274,407.0445
3.3279,412.5380
3.3284,416.8108
3.3289,421.6939
3.3294,424.7458
3.3299,422.6095
3.3304,416.2004
3.3309,409.7913
3.3314,407.6549
3.3319,408.8757
3.3324,409.1809
3.3329,407.0445
3.3334,407.0445
3.3339,411.9276
3.3344,418.9471
3.3349,425.9666
3.3354,435.4276
3.3359,450.0769
3.3364,466.2523
3.3369,479.9860
3.3374,493.4146
3.3379,512.6418
3.3384,536.7522
3.3389,561.7781
3.3394,586.8040
3.3399,614.2715
3.3404,643.2650
3.3409,669.8169
3.3414,695.1481
3.3419,724.1415
3.3424,758.0181
3.3429,791.5895
3.3434,823.0245
3.3439,859.0375
3.3444,905.4270
3.3449,957.9204
3.3454,1004.9204
3.3459,1040.3229
3.3464,1069.6216
3.3469,1100.1410
3.3474,1130.6605
3.3479,1155.9916
3.3484,1177.6604
3.3489,1203.2967
3.3494,1230.1539
3.3499,1246.9395
3.3504,1248.1603
3.3509,1244.4980
3.3514,1247.2447
3.3519,1252.7382
3.3524,1249.9915
3.3529,1237.7837
3.3534,1225.5759
3.3539,1215.8097
3.3544,1204.2123
3.3549,1188.3422
3.3554,1172.7773
3.3559,1158.7384
3.3564,1140.7319
3.3569,1116.6215
3.3574,1090.6800
3.3579,1065.9593
3.3584,1041.8489
3.3589,1016.8230
3.3594,992.1022
3.3599,967.0763
3.3604,937.7776
3.3609,902.9855
3.3614,866.3621
3.3619,831.8752
3.3624,797.9986
3.3629,761.9856
3.3634,725.9727
3.3639,692.4013
3.3644,660.3559
3.3649,625.2585
3.3654,584.6677
3.3659,541.9405
3.3664,502.2652
3.3669,467.1678
3.3674,431.7653
3.3679,391.7848
3.3684,349.3628
3.3689,308.7719
3.3694,268.1811
3.3699,220.8759
3.3704,167.7721
3.3709,116.4995
3.3714,71.0255
3.3719,24.6359
3.3724,-27.5523
3.3729,-82.4873
3.3734,-132.5392
3.3739,-178.6235
3.3744,-226.5391
3.3749,-275.6754
3.3754,-322.9805
3.3759,-369.0648
3.3764,-417.8959
3.3769,-469.7790
3.3774,-520.4413
3.3779,-568.9672
3.3784,-617.1879
3.3789,-666.9346
3.3794,-718.2072
3.3799,-770.3955
3.3804,-824.4149
3.3809,-880.2655
3.3814,-938.5576
3.3819,-997.4601
3.3824,-1051.1743
3.3829,-1096.9535
3.3834,-1140.9015
3.3839,-1192.4794
3.3844,-1251.9923
3.3849,-1309.9792
3.3854,-1360.9467
3.3859,-1410.3882
3.3864,-1461.6608
3.3869,-1508.3556
3.3874,-1544.9789
3.3879,-1577.9399
3.3884,-1615.1736
3.3889,-1653.9333
3.3894,-1686.2839
3.3899,-1712.2254
3.3904,-1736.9462
3.3909,-1760.7513
3.3914,-1778.7578
3.3919,-1793.1019
3.3924,-1808.9721
3.3929,-1826.6733
3.3934,-1840.7123
3.3939,-1849.8681
3.3944,-1857.4980
3.3949,-1864.8226
3.3954,-1869.0954
3.3959,-1870.0109
3.3964,-1870.6213
3.3969,-1872.1473
3.3974,-1872.1473
3.3979,-1870.0109
3.3984,-1866.0434
3.3989,-1860.5499
3.3994,-1853.2252
3.3999,-1844.6798
3.4004,-1836.7447
3.4009,-1829.1149
3.4014,-1819.9591
3.4019,-1808.0565
3.4024,-1794.6279
3.4029,-1780.5890
3.4034,-1763.4981
3.4039,-1740.3033
3.4044,-1712.5306
3.4049,-1686.8943
3.4054,-1668.8878
3.4059,-1654.2385
3.4064,-1632.8749
3.4069,-1602.9658
3.4074,-1573.0568
3.4079,-1546.8101
3.4084,-1519.0374
3.4089,-1486.0764
3.4094,-1455.2517
3.4099,-1432.6674
3.4104,-1413.7453
3.4109,-1389.0246
3.4114,-1356.9791
3.4119,-1323.4078
3.4124,-1291.9727
3.4129,-1261.7585
3.4134,-1230.9338
3.4139,-1198.2780
3.4144,-1161.9599
3.4149,-1123.2002
3.4154,-1082.3042
3.4159,-1038.0510
3.4164,-988.3043
3.4169,-937.3368
3.4174,-886.9798
3.4179,-832.6551
3.4184,-770.7007
3.4189,-711.1878
3.4194,-660.5255
3.4199,-604.9801
3.4204,-529.2919
3.4209,-446.5842
3.4214,-383.1038
3.4219,-341.2921
3.4224,-301.6169
3.4229,-258.8897
3.4234,-221.3507
3.4239,-182.5911
3.4244,-128.8768
3.4249,-75.1626
3.4254,-48.6107
3.4259,-33.0458
3.4264,17.3113
3.4269,104.2917
3.4274,169.2981
3.4279,183.0318
3.4284,190.6617
3.4289,239.4928
3.4294,308.1616
3.4299,349.6680
3.4304,369.8108
3.4309,407.0445
3.4314,466.8626
3.4319,517.8301
3.4324,549.8755
3.4329,583.4469
3.4334,628.6157
3.4339,671.0377
3.4344,704.9143
3.4349,743.0636
3.4354,790.9791
3.4359,835.5375
3.4364,870.6348
3.4369,906.6478
3.4374,950.5958
3.4379,994.2386
3.4384,1031.7775
3.4389,1070.8424
3.4394,1119.0631
3.4399,1169.4202
3.4404,1214.5889
3.4409,1261.8941
3.4414,1320.1862
3.4419,1383.0563
3.4424,1436.7705
3.4429,1481.6340
3.4434,1528.3288
3.4439,1574.1080
3.4444,1607.0689
3.4449,1629.9585
3.4454,1658.9520
3.4459,1697.4065
3.4464,1728.5363
3.4469,1744.4064
3.4474,1758.4454
3.4479,1782.2505
3.4484,1806.9713
3.4489,1822.8414
3.4494,1836.5751
3.4499,1854.2764
3.4504,1871.9777
3.4509,1891.5101
3.4514,1922.3348
3.4519,1952.8542
3.4524,1958.6529
3.4529,1951.6334
3.4534,1976.0490
3.4539,2033.7307
3.4544,2052.3476
3.4549,1981.8477
3.4554,1876.2504
3.4559,1818.2635
3.4564,1798.1206
3.4569,1735.2506
3.4574,1607.0689
3.4579,1475.5302
3.4584,1386.7186
3.4589,1312.8615
3.4594,1218.2513
3.4599,1113.5696
3.4604,1020.7905
3.4609,929.8426
3.4614,826.6868
3.4619,723.2259
3.4624,635.3300
3.4629,552.0119
3.4634,459.5380
3.4639,365.5381
3.4644,283.7460
3.4649,205.9214
3.4654,115.8891
3.4659,16.3957
3.4664,-77.2990
3.4669,-160.6171
3.4674,-239.0520
3.4679,-314.7402
3.4684,-386.7661
3.4689,-456.9608
3.4694,-525.6296
3.4699,-590.0256
3.4704,-648.3177
3.4709,-702.3371
3.4714,-752.6942
3.4719,-798.1682
3.4724,-840.2850
3.4729,-882.7070
3.4734,-924.2135
3.4739,-959.9212
3.4744,-990.1355
3.4749,-1019.4341
3.4754,-1047.8172
3.4759,-1071.3172
3.4764,-1090.8496
3.4769,-1110.9924
3.4774,-1130.8301
3.4779,-1145.7846
3.4784,-1155.5508
3.4789,-1164.4015
3.4794,-1173.2521
3.4799,-1179.3560
3.4804,-1182.4079
3.4809,-1186.0703
3.4814,-1189.1222
3.4819,-1186.3755
3.4824,-1177.2196
3.4829,-1167.1482
3.4834,-1157.9924
3.4839,-1143.3431
3.4844,-1120.4535
3.4849,-1096.3431
3.4854,-1078.6418
3.4859,-1065.8237
3.4864,-1049.3432
3.4869,-1024.0120
3.4874,-993.7978
3.4879,-962.6680
3.4884,-930.6226
3.4889,-894.3044
3.4894,-854.9343
3.4899,-818.3110
3.4904,-787.1812
3.4909,-754.8306
3.4914,-714.5449
3.4919,-668.7657
3.4924,-625.7333
3.4929,-588.1944
3.4934,-550.9607
3.4939,-509.7595
3.4944,-467.6426
3.4949,-427.6622
3.4954,-387.6817
3.4959,-346.4805
3.4964,-307.1104
3.4969,-271.4026
3.4974,-238.1364
3.4979,-203.6495
3.4984,-169.4677
3.4989,-136.5067
3.4994,-102.6301
3.4999,-67.2276
3.5004,-33.9614
3.5009,-5.5783
3.5014,20.0580
3.5019,48.1359
3.5024,77.7398
3.5029,104.5969
3.5034,128.0968
3.5039,154.0384
3.5044,184.8630
3.5049,215.3825
3.5054,236.1357
3.5059,244.9863
3.5064,253.2266
3.5069,271.8434
3.5074,297.4797
3.5079,317.3174
3.5084,331.0511
3.5089,351.1940
3.5094,379.5770
3.5099,399.1095
3.5104,399.7199
3.5109,399.1095
3.5114,419.8627
3.5119,454.3497
3.5124,476.0185
3.5129,476.3237
3.5134,472.0509
3.5139,478.1548
3.5144,490.9730
3.5149,505.0119
3.5154,518.1353
3.5159,529.1223
3.5164,538.8885
3.5169,559.3365
3.5174,603.2845
3.5179,664.0182
3.5184,722.3104
3.5189,772.9726
3.5194,826.0765
3.5199,881.6218
3.5204,924.9594
3.5209,950.5958
3.5214,970.4334
3.5219,992.4074
3.5224,1009.4983
3.5229,1015.2970
3.5234,1017.4334
3.5239,1022.6217
3.5244,1025.0632
3.5249,1019.5697
3.5254,1011.9399
3.5259,1006.4464
3.5264,998.2061
3.5269,983.5568
3.5274,968.2971
3.5279,957.3101
3.5284,944.7971
3.5289,925.8750
3.5294,903.5958
3.5299,881.3166
3.5304,857.5115
3.5309,832.1803
3.5314,810.2064
3.5319,792.1999
3.5324,770.5311
3.5329,742.1480
3.5334,714.3753
3.5339,693.3169
3.5344,672.8689
3.5349,647.8429
3.5354,622.5118
3.5359,601.4534
3.5364,580.3950
3.5369,555.0638
3.5374,529.1223
3.5379,508.3691
3.5384,490.0574
3.5389,468.9990
3.5394,446.7198
3.5399,425.6614
3.5404,404.2978
3.5409,379.5770
3.5414,354.8563
3.5419,334.1031
3.5424,315.1810
3.5429,293.2070
3.5434,269.7071
3.5439,252.0058
3.5444,241.0188
3.5449,229.7266
3.5454,211.7201
3.5459,188.5253
3.5464,166.5513
3.5469,150.6812
3.5474,139.6942
3.5479,129.3176
3.5484,116.1943
3.5489,102.4605
3.5494,91.1683
3.5499,81.7073
3.5504,70.7203
3.5509,60.0385
3.5514,52.7138
3.5519,47.5255
3.5524,40.2009
3.5529,30.7398
3.5534,23.7204
3.5539,20.0580
3.5544,15.1749
3.5549,9.0710
3.5554,6.0191
3.5559,6.3243
3.5564,4.7983
3.5569,-0.3900
3.5574,-4.9679
3.5579,-5.8835
3.5584,-6.4939
3.5589,-8.3251
3.5594,-8.3251
3.5599,-5.8835
3.5604,-4.6627
3.5609,-6.7991
3.5614,-7.4095
3.5619,-3.7471
3.5624,0.5256
3.5629,2.3568
3.5634,6.0191
3.5639,15.4801
3.5644,27.3827
3.5649,34.7074
3.5654,35.9281
3.5659,35.9281
3.5664,38.9801
3.5669,46.9151
3.5674,57.2917
3.5679,66.4476
3.5684,73.1619
3.5689,81.4021
3.5694,91.7787
3.5699,97.2722
3.5704,94.5255
3.5709,92.3891
3.5714,100.0190
3.5719,111.0060
3.5724,112.2267
3.5729,107.0384
3.5734,110.3956
3.5739,125.3501
3.5744,133.5903
3.5749,125.0449
3.5754,112.5319
3.5759,111.0060
3.5764,116.8047
3.5769,117.7202
3.5774,112.2267
3.5779,109.4800
3.5784,111.0060
3.5789,111.6164
3.5794,109.1748
3.5799,106.7332
3.5804,102.7657
3.5809,94.8307
3.5814,85.9800
3.5819,82.0125
3.5824,80.4865
3.5829,74.0774
3.5834,64.9216
3.5839,62.4801
3.5844,66.4476
3.5849,64.3112
3.5854,48.4411
3.5859,28.2983
3.5864,17.0061
3.5869,15.4801
3.5874,13.6489
3.5879,9.9866
3.5884,11.8178
3.5889,20.9736
3.5894,25.8567
3.5899,17.6165
3.5904,2.9671
3.5909,-5.5783
3.5914,-7.7147
3.5919,-13.2082
3.5924,-25.4159
3.5929,-37.3185
3.5934,-44.3380
3.5939,-50.7471
3.5944,-59.9029
3.5949,-69.3639
3.5954,-76.3834
3.5959,-84.0133
3.5964,-93.7795
3.5969,-102.6301
3.5974,-107.8184
3.5979,-113.6171
3.5984,-124.2989
3.5989,-136.8119
3.5994,-147.1885
3.5999,-156.9547
3.6004,-171.6041
3.6009,-189.3053
3.6014,-205.1754
3.6019,-218.2988
3.6024,-231.7274
3.6029,-245.7663
3.6034,-254.9221
3.6039,-257.9741
3.6044,-258.2793
3.6049,-261.6364
3.6054,-270.1819
3.6059,-282.3896
3.6064,-294.9026
3.6069,-305.5844
3.6074,-314.7402
3.6079,-325.4220
3.6084,-337.9350
3.6089,-350.4480
3.6094,-360.8246
3.6099,-369.9804
3.6104,-379.1363
3.6109,-387.6817
3.6114,-395.0064
3.6119,-403.8570
3.6124,-416.3700
3.6129,-429.1881
3.6134,-438.3440
3.6139,-445.3634
3.6144,-452.6881
3.6149,-460.3180
3.6154,-464.2855
3.6159,-463.6751
3.6164,-462.1491
3.6169,-461.5387
3.6174,-462.1491
3.6179,-463.9803
3.6184,-466.7271
3.6189,-469.4738
3.6194,-470.9998
3.6199,-471.9154
3.6204,-474.6621
3.6209,-479.5452
3.6214,-483.5127
3.6219,-485.9543
3.6224,-488.3959
3.6229,-492.0582
3.6234,-494.1945
3.6239,-491.4478
3.6244,-486.5647
3.6249,-486.8699
3.6254,-494.8049
3.6259,-503.0452
3.6264,-503.3504
3.6269,-496.6361
3.6274,-490.8374
3.6279,-485.6491
3.6284,-472.8309
3.6289,-452.0777
3.6294,-438.3440
3.6299,-439.8699
3.6304,-445.6686
3.6309,-441.7011
3.6314,-431.0193
3.6319,-425.2206
3.6324,-426.1362
3.6329,-423.9998
3.6334,-417.5908
3.6339,-412.4024
3.6344,-409.6557
3.6349,-404.1622
3.6354,-394.7012
3.6359,-386.7661
3.6364,-381.8830
3.6369,-376.6947
3.6374,-370.5908
3.6379,-364.7921
3.6384,-358.0778
3.6389,-348.6168
3.6394,-339.1558
3.6399,-329.0844
3.6404,-312.2987
3.6409,-293.6818
3.6414,-300.7013
3.6419,-349.2272
3.6424,-410.2661
3.6429,-435.9024
3.6434,-413.9284
3.6439,-377.9155
3.6444,-357.4675
3.6449,-347.0908
3.6454,-330.3052
3.6459,-309.2467
3.6464,-293.9870
3.6469,-280.8637
3.6474,-260.4156
3.6479,-236.6105
3.6484,-219.8248
3.6489,-208.2274
3.6494,-194.1884
3.6499,-176.7924
3.6504,-162.1430
3.6509,-149.0197
3.6514,-131.9288
3.6519,-111.4808
3.6524,-94.6951
3.6529,-82.4873
3.6534,-69.3639
3.6539,-53.1886
3.6544,-38.8445
3.6549,-27.2471
3.6554,-13.5134
3.6558,3.2723
3.6563,19.7528
3.6568,32.2658
3.6573,44.7788
3.6578,58.8177
3.6583,71.0255
3.6588,79.8761
3.6593,89.9475
3.6598,103.6813
3.6603,114.6683
3.6608,118.9410
3.6613,120.7722
3.6618,127.1813
3.6623,135.7267
3.6628,140.3046
3.6633,143.0514
3.6638,151.5968
3.6643,164.7202
3.6648,174.4864
3.6653,176.9280
3.6658,175.7072
3.6663,174.4864
3.6668,174.7916
3.6673,179.9799
3.6678,193.1033
3.6683,210.8045
3.6688,226.6746
3.6693,237.6616
3.6698,245.2915
3.6703,250.7850
3.6708,252.9214
3.6713,252.3110
3.6718,251.0902
3.6723,248.0383
3.6728,241.3240
3.6733,232.1681
3.6738,223.9279
3.6743,217.5188
3.6748,211.1097
3.6753,204.7006
3.6758,198.9020
3.6763,192.7981
3.6768,185.1682
3.6773,176.3176
3.6778,167.4669
3.6783,159.8371
3.6788,153.7332
3.6793,148.8501
3.6798,144.2722
3.6803,140.6098
3.6808,142.7462
3.6813,152.5124
3.6818,163.1942
3.6823,165.0254
3.6828,157.3955
3.6833,148.2397
3.6838,143.3566
3.6843,139.6942
3.6848,131.1488
3.6853,117.7202
3.6858,102.4605
3.6863,86.8956
3.6868,71.3307
3.6873,55.4606
3.6878,38.6749
3.6883,23.1100
3.6888,12.4282
3.6893,6.3243
3.6898,-0.0848
3.6903,-7.7147
3.6908,-8.3251
3.6913,1.7464
3.6918,14.2593
3.6923,16.0905
3.6928,9.6814
3.6933,5.4087
3.6938,6.9347
3.6943,6.3243
3.6948,0.8308
3.6953,-3.4419
3.6958,-3.4419
3.6963,-6.1887
3.6968,-15.9549
3.6973,-26.9419
3.6978,-32.1302
3.6983,-34.2666
3.6988,-39.7601
3.6993,-45.5588
3.6998,-43.1172
3.7003,-31.2146
3.7008,-17.4809
3.7013,-7.7147
3.7018,-1.6108
3.7023,2.6619
3.7028,3.8827
3.7033,-1.3056
3.7038,-12.5978
3.7043,-24.1952
3.7048,-31.5198
3.7053,-35.4874
3.7058,-40.0653
3.7063,-46.1692
3.7068,-48.0003
3.7073,-42.5068
3.7078,-34.2666
3.7083,-31.5198
3.7088,-35.4874
