"type","name","time_units","begin_time","frequency","count","units"
"signal","","s",0.0000,2000.3556,75600,"uV"

"time","value"
0.0000,-164.5477
0.0005,-108.6971
0.0010,-32.0933
0.0015,30.7767
0.0020,62.5170
0.0025,74.4195
0.0030,76.2507
0.0035,66.4845
0.0040,60.3806
0.0045,89.0689
0.0050,152.2441
0.0055,195.2765
0.0060,170.8610
0.0065,101.8870
0.0070,52.7507
0.0075,52.1404
0.0080,71.3676
0.0085,71.3676
0.0090,45.1209
0.0095,14.9066
0.0100,11.2443
0.0105,50.0040
0.0110,111.6533
0.0115,147.0558
0.0120,126.6078
0.0125,75.3351
0.0130,42.9845
0.0135,43.2897
0.0140,48.4780
0.0145,38.1014
0.0150,20.0949
0.0155,1.4781
0.0160,-32.3985
0.0165,-84.2815
0.0170,-116.6322
0.0175,-82.1452
0.0180,24.6729
0.0185,158.3480
0.0190,263.0297
0.0195,310.0296
0.0200,301.7894
0.0205,260.8933
0.0210,214.1986
0.0215,173.9129
0.0220,129.0493
0.0225,59.7702
0.0230,-22.6323
0.0235,-74.5153
0.0240,-65.6647
0.0245,-19.5803
0.0250,11.8547
0.0255,6.9716
0.0260,-16.5284
0.0265,-43.6907
0.0270,-82.4504
0.0275,-130.9763
0.0280,-161.8009
0.0285,-157.5282
0.0290,-137.3854
0.0295,-124.8724
0.0300,-109.0023
0.0305,-70.2426
0.0310,-24.7686
0.0315,-3.7102
0.0320,-0.0479
0.0325,24.3677
0.0330,74.4195
0.0335,107.9909
0.0340,94.2572
0.0345,55.1923
0.0350,30.4715
0.0355,27.4196
0.0360,27.4196
0.0365,21.0105
0.0370,16.7378
0.0375,17.0430
0.0380,15.5170
0.0385,7.8872
0.0390,-0.0479
0.0395,-4.0154
0.0400,-8.2881
0.0405,-18.3596
0.0410,-34.2297
0.0415,-48.5738
0.0420,-54.9829
0.0425,-54.9829
0.0430,-54.0673
0.0435,-54.3725
0.0440,-51.9309
0.0445,-44.9115
0.0450,-39.1128
0.0455,-40.6387
0.0460,-44.9115
0.0465,-44.6063
0.0470,-40.0284
0.0475,-38.1972
0.0480,-41.2491
0.0485,-45.5219
0.0490,-48.2686
0.0495,-50.0998
0.0500,-50.4050
0.0505,-46.4374
0.0510,-39.4180
0.0515,-34.8401
0.0520,-35.1452
0.0525,-36.6712
0.0530,-35.7556
0.0535,-33.3141
0.0540,-30.2621
0.0545,-26.2946
0.0550,-20.1907
0.0555,-14.6972
0.0560,-12.2557
0.0565,-12.8661
0.0570,-15.0024
0.0575,-17.1388
0.0580,-19.2751
0.0585,-20.4959
0.0590,-19.8855
0.0595,-20.1907
0.0600,-22.3271
0.0605,-24.4634
0.0610,-24.1582
0.0615,-22.9375
0.0620,-24.4634
0.0625,-29.6517
0.0630,-36.6712
0.0635,-47.3530
0.0640,-62.6127
0.0645,-75.7361
0.0650,-76.9569
0.0655,-68.4114
0.0660,-65.3595
0.0665,-74.2101
0.0670,-79.3984
0.0675,-64.4439
0.0680,-36.3660
0.0685,-17.4440
0.0690,-13.7816
0.0695,-9.5089
0.0700,7.5820
0.0705,30.1664
0.0710,40.5430
0.0715,35.0495
0.0720,23.1469
0.0725,13.9911
0.0730,7.2768
0.0735,2.6989
0.0740,3.6144
0.0745,13.9911
0.0750,27.1144
0.0755,31.9975
0.0760,23.4521
0.0765,9.4131
0.0770,0.5625
0.0775,3.6144
0.0780,19.7897
0.0785,42.9845
0.0790,58.2442
0.0795,50.0040
0.0800,26.1988
0.0805,18.5690
0.0810,46.3417
0.0815,90.2897
0.0820,123.8610
0.0825,153.1597
0.0830,201.3804
0.0835,258.1466
0.0840,275.2375
0.0845,226.4064
0.0850,144.3091
0.0855,85.4065
0.0860,71.9780
0.0865,82.3546
0.0870,88.7637
0.0875,79.6078
0.0880,58.2442
0.0885,35.3547
0.0890,18.8742
0.0895,11.2443
0.0900,7.2768
0.0905,0.5625
0.0910,-10.4245
0.0915,-26.5998
0.0920,-45.8271
0.0925,-58.6452
0.0930,-55.2881
0.0935,-38.8076
0.0940,-25.6842
0.0945,-25.3790
0.0950,-29.3466
0.0955,-27.2102
0.0960,-22.9375
0.0965,-25.6842
0.0970,-35.7556
0.0975,-45.5219
0.0980,-52.8465
0.0985,-62.0024
0.0990,-72.6842
0.0995,-80.6192
0.1000,-85.8075
0.1005,-91.9114
0.1010,-97.4049
0.1015,-96.7945
0.1020,-90.0802
0.1025,-84.2815
0.1030,-83.9764
0.1035,-83.9764
0.1040,-76.9569
0.1045,-61.0868
0.1050,-40.9439
0.1055,-24.4634
0.1060,-18.3596
0.1065,-23.8531
0.1070,-34.5349
0.1075,-42.1647
0.1080,-44.9115
0.1085,-48.8790
0.1090,-55.8985
0.1095,-60.1712
0.1100,-53.4569
0.1105,-31.7881
0.1110,-4.6258
0.1115,8.8027
0.1120,-1.2687
0.1125,-16.8336
0.1130,0.8677
0.1135,64.0429
0.1140,130.5753
0.1145,150.1078
0.1150,123.8610
0.1155,100.0559
0.1160,108.2961
0.1165,128.4390
0.1170,129.9649
0.1175,115.0104
0.1180,100.0559
0.1185,82.6598
0.1190,53.9715
0.1195,25.5884
0.1200,19.7897
0.1205,36.2702
0.1210,52.1404
0.1215,53.0559
0.1220,44.5105
0.1225,35.0495
0.1230,25.2832
0.1235,17.6534
0.1240,19.4846
0.1245,29.2508
0.1250,33.8287
0.1255,25.2832
0.1260,9.7183
0.1265,-1.5739
0.1270,-5.5414
0.1275,-4.0154
0.1280,0.2573
0.1285,5.4456
0.1290,8.8027
0.1295,9.1079
0.1300,6.6664
0.1305,2.0885
0.1310,-2.4894
0.1315,-6.4570
0.1320,-8.5933
0.1325,-10.1193
0.1330,-11.9505
0.1335,-13.7816
0.1340,-13.4764
0.1345,-11.9505
0.1350,-12.2557
0.1355,-14.6972
0.1360,-18.0544
0.1365,-20.4959
0.1370,-21.7167
0.1375,-22.6323
0.1380,-23.8531
0.1385,-24.1582
0.1390,-22.0219
0.1395,-18.6648
0.1400,-16.2232
0.1405,-16.5284
0.1410,-17.7492
0.1415,-18.6648
0.1420,-18.6648
0.1425,-18.6648
0.1430,-18.3596
0.1435,-16.8336
0.1440,-15.0024
0.1445,-14.0868
0.1450,-14.6972
0.1455,-14.6972
0.1460,-15.3076
0.1465,-15.9180
0.1470,-16.2232
0.1475,-15.6128
0.1480,-15.9180
0.1485,-21.4115
0.1490,-29.9569
0.1495,-37.2816
0.1500,-39.1128
0.1505,-36.3660
0.1510,-31.7881
0.1515,-26.2946
0.1520,-21.1063
0.1525,-17.7492
0.1530,-17.7492
0.1535,-21.1063
0.1540,-24.4634
0.1545,-26.9050
0.1550,-29.0414
0.1555,-33.3141
0.1560,-39.1128
0.1565,-43.3855
0.1570,-43.0803
0.1575,-38.1972
0.1580,-30.5673
0.1585,-23.2427
0.1590,-20.8011
0.1595,-27.2102
0.1600,-38.5024
0.1605,-42.4699
0.1610,-30.8725
0.1615,-9.2037
0.1620,7.8872
0.1625,14.2962
0.1630,13.6859
0.1635,11.8547
0.1640,9.4131
0.1645,5.1404
0.1650,0.5625
0.1655,-2.4894
0.1660,-5.5414
0.1665,-9.8141
0.1670,-12.5609
0.1675,-10.7297
0.1680,-4.9310
0.1685,0.8677
0.1690,3.9196
0.1695,3.0041
0.1700,-1.5739
0.1705,-8.2881
0.1710,-12.8661
0.1715,-13.4764
0.1720,-12.5609
0.1725,-12.2557
0.1730,-11.3401
0.1735,-5.8466
0.1740,2.6989
0.1745,8.4976
0.1750,8.4976
0.1755,7.5820
0.1760,11.8547
0.1765,20.7053
0.1770,26.5040
0.1775,25.5884
0.1780,21.9261
0.1785,22.2313
0.1790,25.5884
0.1795,28.9456
0.1800,29.2508
0.1805,26.8092
0.1810,23.1469
0.1815,21.9261
0.1820,25.2832
0.1825,31.0819
0.1830,33.2183
0.1835,29.8612
0.1840,26.8092
0.1845,29.2508
0.1850,34.7443
0.1855,35.3547
0.1860,31.3871
0.1865,30.1664
0.1870,36.2702
0.1875,44.2053
0.1880,47.5624
0.1885,44.2053
0.1890,36.2702
0.1895,24.3677
0.1900,12.1599
0.1905,6.6664
0.1910,13.3807
0.1915,26.1988
0.1920,33.2183
0.1925,30.7767
0.1930,24.9780
0.1935,23.1469
0.1940,24.9780
0.1945,24.9780
0.1950,23.4521
0.1955,24.6729
0.1960,30.4715
0.1965,38.4066
0.1970,44.2053
0.1975,43.2897
0.1980,33.5235
0.1985,17.0430
0.1990,0.8677
0.1995,-7.3726
0.2000,-6.7622
0.2005,-1.8791
0.2010,1.4781
0.2015,-1.2687
0.2020,-10.7297
0.2025,-21.7167
0.2030,-25.0738
0.2035,-19.8855
0.2040,-14.6972
0.2045,-16.5284
0.2050,-19.2751
0.2055,-14.0868
0.2060,-5.2362
0.2065,-7.0674
0.2070,-22.9375
0.2075,-38.1972
0.2080,-38.5024
0.2085,-23.8531
0.2090,-4.0154
0.2095,14.6014
0.2100,29.5560
0.2105,35.3547
0.2110,28.9456
0.2115,15.2118
0.2120,0.5625
0.2125,-13.7816
0.2130,-30.2621
0.2135,-42.4699
0.2140,-41.5543
0.2145,-26.5998
0.2150,-7.9829
0.2155,3.6144
0.2160,4.5300
0.2165,-2.4894
0.2170,-11.9505
0.2175,-15.6128
0.2180,-10.4245
0.2185,-0.3531
0.2190,6.3612
0.2195,6.9716
0.2200,3.0041
0.2205,-5.2362
0.2210,-18.3596
0.2215,-33.3141
0.2220,-43.0803
0.2225,-44.3011
0.2230,-40.0284
0.2235,-33.9245
0.2240,-27.8206
0.2245,-23.2427
0.2250,-22.9375
0.2255,-25.9894
0.2260,-28.1258
0.2265,-27.2102
0.2270,-27.2102
0.2275,-29.9569
0.2280,-32.7037
0.2285,-32.0933
0.2290,-27.8206
0.2295,-22.9375
0.2300,-18.9699
0.2305,-15.6128
0.2310,-13.4764
0.2315,-13.7816
0.2320,-15.0024
0.2325,-14.3920
0.2330,-12.8661
0.2335,-12.2557
0.2340,-13.4764
0.2345,-14.6972
0.2350,-14.3920
0.2355,-15.0024
0.2360,-16.8336
0.2365,-18.3596
0.2370,-17.1388
0.2375,-14.3920
0.2380,-13.4764
0.2385,-15.6128
0.2390,-18.0544
0.2395,-18.6648
0.2400,-17.7492
0.2405,-16.5284
0.2410,-14.6972
0.2415,-11.9505
0.2420,-11.9505
0.2425,-16.5284
0.2430,-24.1582
0.2435,-30.5673
0.2440,-32.0933
0.2445,-29.0414
0.2450,-22.0219
0.2455,-12.2557
0.2460,-2.1843
0.2465,5.1404
0.2470,9.1079
0.2475,11.2443
0.2480,11.5495
0.2485,9.7183
0.2490,6.3612
0.2495,3.0041
0.2500,0.5625
0.2505,-0.6583
0.2510,0.8677
0.2515,6.9716
0.2520,13.9911
0.2525,13.9911
0.2530,6.3612
0.2535,0.2573
0.2540,4.5300
0.2545,17.6534
0.2550,29.5560
0.2555,35.9650
0.2560,39.0170
0.2565,40.8482
0.2570,38.7118
0.2575,32.9131
0.2580,28.0300
0.2585,26.8092
0.2590,24.9780
0.2595,20.0949
0.2600,15.8222
0.2605,16.4326
0.2610,20.0949
0.2615,20.4001
0.2620,13.0755
0.2625,-1.8791
0.2630,-23.8531
0.2635,-48.8790
0.2640,-68.1062
0.2645,-73.5997
0.2650,-65.9699
0.2655,-51.9309
0.2660,-37.2816
0.2665,-24.7686
0.2670,-16.8336
0.2675,-14.6972
0.2680,-15.9180
0.2685,-15.3076
0.2690,-11.0349
0.2695,-4.0154
0.2700,3.3092
0.2705,11.2443
0.2710,17.0430
0.2715,19.7897
0.2720,20.0949
0.2725,19.7897
0.2730,19.1794
0.2735,17.3482
0.2740,14.9066
0.2745,12.1599
0.2750,9.1079
0.2755,4.8352
0.2760,0.8677
0.2765,-0.3531
0.2770,-0.0479
0.2775,1.1729
0.2780,2.6989
0.2785,5.1404
0.2790,6.9716
0.2795,6.6664
0.2800,5.4456
0.2805,5.1404
0.2810,6.3612
0.2814,6.9716
0.2819,6.0560
0.2824,6.3612
0.2829,8.4976
0.2834,10.6339
0.2839,8.8027
0.2844,4.2248
0.2849,-0.3531
0.2854,-1.5739
0.2859,-0.3531
0.2864,1.7833
0.2869,3.6144
0.2874,5.1404
0.2879,5.4456
0.2884,4.8352
0.2889,2.0885
0.2894,-3.0998
0.2899,-12.5609
0.2904,-23.5479
0.2909,-31.1777
0.2914,-29.9569
0.2919,-21.7167
0.2924,-13.4764
0.2929,-9.5089
0.2934,-7.0674
0.2939,-1.2687
0.2944,7.8872
0.2949,17.6534
0.2954,23.4521
0.2959,23.1469
0.2964,16.1274
0.2969,5.7508
0.2974,-0.3531
0.2979,1.7833
0.2984,10.9391
0.2989,18.2638
0.2994,19.7897
0.2999,17.9586
0.3004,16.7378
0.3009,16.7378
0.3014,16.7378
0.3019,16.1274
0.3024,14.2962
0.3029,13.0755
0.3034,11.8547
0.3039,10.6339
0.3044,7.8872
0.3049,3.6144
0.3054,-0.0479
0.3059,-0.9635
0.3064,0.5625
0.3069,4.2248
0.3074,7.2768
0.3079,6.9716
0.3084,3.3092
0.3089,-0.0479
0.3094,-0.3531
0.3099,-0.6583
0.3104,-5.5414
0.3109,-13.7816
0.3114,-18.6648
0.3119,-15.9180
0.3124,-11.9505
0.3129,-13.7816
0.3134,-20.1907
0.3139,-25.0738
0.3144,-24.4634
0.3149,-19.2751
0.3154,-10.4245
0.3159,-0.3531
0.3164,6.9716
0.3169,7.2768
0.3174,4.2248
0.3179,5.4456
0.3184,12.4651
0.3189,18.2638
0.3194,17.0430
0.3199,12.1599
0.3204,10.3287
0.3209,14.9066
0.3214,22.2313
0.3219,25.8936
0.3224,23.1469
0.3229,17.6534
0.3234,15.8222
0.3239,19.4846
0.3244,24.0625
0.3249,24.6729
0.3254,22.8417
0.3259,22.2313
0.3264,23.7573
0.3269,25.8936
0.3274,28.3352
0.3279,31.3871
0.3284,32.9131
0.3289,31.6923
0.3294,29.5560
0.3299,29.2508
0.3304,29.8612
0.3309,28.6404
0.3314,25.2832
0.3319,21.0105
0.3324,15.5170
0.3329,8.4976
0.3334,2.0885
0.3339,-1.2687
0.3344,-3.0998
0.3349,-4.6258
0.3354,-6.1518
0.3359,-7.9829
0.3364,-10.1193
0.3369,-12.8661
0.3374,-14.6972
0.3379,-15.0024
0.3384,-15.6128
0.3389,-17.4440
0.3394,-18.6648
0.3399,-17.1388
0.3404,-14.6972
0.3409,-14.3920
0.3414,-15.9180
0.3419,-16.8336
0.3424,-16.5284
0.3429,-15.3076
0.3434,-13.1713
0.3439,-9.8141
0.3444,-7.3726
0.3449,-5.8466
0.3454,-4.3206
0.3459,-1.8791
0.3464,-0.3531
0.3469,-1.5739
0.3474,-5.5414
0.3479,-5.2362
0.3484,5.1404
0.3489,25.8936
0.3494,47.5624
0.3499,59.4650
0.3504,60.0754
0.3509,57.9390
0.3514,58.5494
0.3519,58.2442
0.3524,49.0884
0.3529,31.9975
0.3534,15.5170
0.3539,3.6144
0.3544,-6.1518
0.3549,-15.6128
0.3554,-19.5803
0.3559,-15.3076
0.3564,-8.5933
0.3569,-5.8466
0.3574,-5.8466
0.3579,-4.0154
0.3584,0.5625
0.3589,3.6144
0.3594,1.7833
0.3599,-4.3206
0.3604,-14.3920
0.3609,-25.9894
0.3614,-35.1452
0.3619,-37.2816
0.3624,-31.7881
0.3629,-24.4634
0.3634,-19.5803
0.3639,-16.2232
0.3644,-9.8141
0.3649,-0.3531
0.3654,9.4131
0.3659,21.0105
0.3664,35.9650
0.3669,51.8352
0.3674,63.1274
0.3679,65.5689
0.3684,63.1274
0.3689,61.6014
0.3694,64.0429
0.3699,68.6209
0.3704,69.8416
0.3709,63.7377
0.3714,49.0884
0.3719,27.4196
0.3724,1.1729
0.3729,-30.5673
0.3734,-69.6322
0.3739,-115.7166
0.3744,-169.7360
0.3749,-226.8073
0.3754,-271.9761
0.3759,-285.4047
0.3764,-259.7683
0.3769,-209.4113
0.3774,-155.3918
0.3779,-109.6127
0.3784,-74.5153
0.3789,-52.2361
0.3794,-40.9439
0.3799,-31.1777
0.3804,-17.4440
0.3809,-8.5933
0.3814,-15.6128
0.3819,-32.0933
0.3824,-41.8595
0.3829,-37.2816
0.3834,-22.0219
0.3839,0.8677
0.3844,31.6923
0.3849,60.9910
0.3854,75.3351
0.3859,75.9455
0.3864,75.9455
0.3869,81.4390
0.3874,82.6598
0.3879,75.3351
0.3884,68.9260
0.3889,72.2832
0.3894,79.3027
0.3899,79.6078
0.3904,72.2832
0.3909,63.7377
0.3914,57.0235
0.3919,50.9196
0.3924,46.9520
0.3929,45.1209
0.3934,43.2897
0.3939,39.0170
0.3944,33.5235
0.3949,28.9456
0.3954,24.6729
0.3959,19.1794
0.3964,14.9066
0.3969,15.8222
0.3974,21.3157
0.3979,27.7248
0.3984,34.1339
0.3989,41.4585
0.3994,50.0040
0.3999,55.4975
0.4004,54.5819
0.4009,50.0040
0.4014,46.6469
0.4019,42.3741
0.4024,32.9131
0.4029,22.5365
0.4034,21.0105
0.4039,26.5040
0.4044,19.1794
0.4049,-11.9505
0.4054,-48.2686
0.4059,-58.9504
0.4064,-44.6063
0.4069,-36.3660
0.4074,-55.5933
0.4079,-86.4179
0.4084,-98.9309
0.4089,-87.3335
0.4094,-65.6647
0.4099,-46.4374
0.4104,-30.8725
0.4109,-20.8011
0.4114,-20.1907
0.4119,-24.4634
0.4124,-25.9894
0.4129,-24.7686
0.4134,-28.1258
0.4139,-35.7556
0.4144,-36.3660
0.4149,-25.3790
0.4154,-11.6453
0.4159,-5.5414
0.4164,-5.8466
0.4169,-6.7622
0.4174,-5.8466
0.4179,-5.2362
0.4184,-2.7946
0.4189,3.6144
0.4194,12.4651
0.4199,17.3482
0.4204,17.3482
0.4209,15.8222
0.4214,15.2118
0.4219,12.7703
0.4224,6.9716
0.4229,-0.0479
0.4234,-4.0154
0.4239,-3.7102
0.4244,0.5625
0.4249,8.4976
0.4254,16.4326
0.4259,20.4001
0.4264,17.6534
0.4269,10.9391
0.4274,6.6664
0.4279,8.8027
0.4284,13.9911
0.4289,17.9586
0.4294,21.3157
0.4299,26.1988
0.4304,31.6923
0.4309,32.6079
0.4314,27.4196
0.4319,21.9261
0.4324,19.7897
0.4329,18.2638
0.4334,12.4651
0.4339,3.6144
0.4344,-4.0154
0.4349,-11.3401
0.4354,-20.8011
0.4359,-33.9245
0.4364,-48.2686
0.4369,-60.1712
0.4374,-64.4439
0.4379,-57.1192
0.4384,-39.1128
0.4389,-18.9699
0.4394,-4.6258
0.4399,3.3092
0.4404,9.4131
0.4409,13.9911
0.4414,13.0755
0.4419,6.0560
0.4424,-1.2687
0.4429,-5.8466
0.4434,-7.9829
0.4439,-8.8985
0.4444,-8.2881
0.4449,-5.5414
0.4454,-2.1843
0.4459,0.2573
0.4464,3.3092
0.4469,6.9716
0.4474,10.9391
0.4479,14.2962
0.4484,16.4326
0.4489,16.7378
0.4494,14.2962
0.4499,10.3287
0.4504,6.6664
0.4509,2.6989
0.4514,-3.0998
0.4519,-10.1193
0.4524,-13.4764
0.4529,-11.6453
0.4534,-8.2881
0.4539,-7.6778
0.4544,-10.1193
0.4549,-12.8661
0.4554,-15.6128
0.4559,-19.8855
0.4564,-24.7686
0.4569,-26.5998
0.4574,-24.1582
0.4579,-22.0219
0.4584,-23.2427
0.4589,-24.1582
0.4594,-21.1063
0.4599,-16.5284
0.4604,-16.8336
0.4609,-21.1063
0.4614,-22.0219
0.4619,-16.2232
0.4624,-7.9829
0.4629,-3.7102
0.4634,-3.7102
0.4639,-7.0674
0.4644,-15.0024
0.4649,-24.4634
0.4654,-27.8206
0.4659,-21.1063
0.4664,-7.9829
0.4669,4.5300
0.4674,14.2962
0.4679,17.0430
0.4684,8.4976
0.4689,-8.2881
0.4694,-22.0219
0.4699,-26.5998
0.4704,-27.2102
0.4709,-26.5998
0.4714,-20.1907
0.4719,-10.1193
0.4724,-13.4764
0.4729,-39.4180
0.4734,-69.3270
0.4739,-73.9049
0.4744,-50.0998
0.4749,-20.4959
0.4754,-1.5739
0.4759,9.4131
0.4764,18.8742
0.4769,25.2832
0.4774,28.0300
0.4779,29.2508
0.4784,26.5040
0.4789,12.4651
0.4794,-9.8141
0.4799,-24.7686
0.4804,-21.1063
0.4809,-5.2362
0.4814,9.1079
0.4819,15.2118
0.4824,11.5495
0.4829,1.1729
0.4834,-8.8985
0.4839,-11.9505
0.4844,-7.0674
0.4849,-0.9635
0.4854,2.3937
0.4859,6.3612
0.4864,10.6339
0.4869,9.7183
0.4874,3.6144
0.4879,0.8677
0.4884,7.5820
0.4889,17.0430
0.4894,19.4846
0.4899,13.6859
0.4904,6.3612
0.4909,1.7833
0.4914,0.8677
0.4919,3.6144
0.4924,11.5495
0.4929,20.7053
0.4934,27.4196
0.4939,32.3027
0.4944,37.7962
0.4949,44.2053
0.4954,46.6469
0.4959,44.2053
0.4964,38.4066
0.4969,29.8612
0.4974,15.8222
0.4979,-3.0998
0.4984,-21.1063
0.4989,-29.3466
0.4994,-26.5998
0.4999,-17.1388
0.5004,-7.3726
0.5009,-0.9635
0.5014,3.3092
0.5019,8.4976
0.5024,18.2638
0.5029,33.2183
0.5034,51.2248
0.5039,68.6209
0.5044,81.1338
0.5049,85.7117
0.5054,84.7962
0.5059,84.7962
0.5064,89.0689
0.5069,93.0364
0.5074,87.2377
0.5079,70.7572
0.5084,54.2767
0.5089,44.8157
0.5094,37.7962
0.5099,27.4196
0.5104,17.6534
0.5109,17.6534
0.5114,24.9780
0.5119,30.1664
0.5124,29.8612
0.5129,31.6923
0.5134,39.0170
0.5139,43.9001
0.5144,38.4066
0.5149,25.5884
0.5154,14.2962
0.5159,10.0235
0.5164,10.9391
0.5169,13.6859
0.5174,15.8222
0.5179,13.9911
0.5184,8.4976
0.5189,3.9196
0.5194,4.8352
0.5199,9.1079
0.5204,10.6339
0.5209,7.8872
0.5214,4.8352
0.5219,5.1404
0.5224,6.9716
0.5229,3.9196
0.5234,-7.9829
0.5239,-23.8531
0.5244,-32.0933
0.5249,-27.2102
0.5254,-16.5284
0.5259,-11.3401
0.5264,-12.2557
0.5269,-11.6453
0.5274,-7.0674
0.5279,-4.6258
0.5284,-8.2881
0.5289,-11.3401
0.5294,-6.7622
0.5299,2.3937
0.5304,8.4976
0.5309,9.7183
0.5314,9.1079
0.5319,8.1924
0.5324,4.8352
0.5329,-1.2687
0.5334,-7.0674
0.5339,-8.5933
0.5344,-6.7622
0.5349,-4.6258
0.5354,-3.4050
0.5359,-5.2362
0.5364,-9.8141
0.5369,-15.9180
0.5374,-20.4959
0.5379,-21.4115
0.5384,-19.8855
0.5389,-18.0544
0.5394,-18.0544
0.5399,-20.1907
0.5404,-22.0219
0.5409,-20.4959
0.5414,-14.3920
0.5419,-7.9829
0.5424,-8.5933
0.5429,-21.4115
0.5434,-42.1647
0.5439,-58.9504
0.5444,-62.0024
0.5449,-54.0673
0.5454,-43.6907
0.5459,-33.3141
0.5464,-18.6648
0.5469,-3.4050
0.5474,-1.5739
0.5479,-20.1907
0.5484,-45.8271
0.5489,-56.8141
0.5494,-46.7426
0.5499,-27.5154
0.5504,-12.8661
0.5509,-6.7622
0.5514,-5.8466
0.5519,-8.2881
0.5524,-15.0024
0.5529,-26.2946
0.5534,-39.7232
0.5539,-50.7102
0.5544,-54.3725
0.5549,-51.9309
0.5554,-51.9309
0.5559,-60.4764
0.5564,-73.2945
0.5569,-82.4504
0.5574,-84.2815
0.5579,-80.9244
0.5584,-73.5997
0.5589,-62.6127
0.5594,-52.2361
0.5599,-47.3530
0.5604,-43.9959
0.5609,-35.4504
0.5614,-23.5479
0.5619,-16.2232
0.5624,-16.8336
0.5629,-16.8336
0.5634,-10.1193
0.5639,-0.9635
0.5644,1.4781
0.5649,-3.0998
0.5654,-9.5089
0.5659,-10.1193
0.5664,-2.1843
0.5669,9.1079
0.5674,15.2118
0.5679,10.3287
0.5684,1.7833
0.5689,1.1729
0.5694,8.1924
0.5699,11.8547
0.5704,6.9716
0.5709,0.2573
0.5714,-1.2687
0.5719,-2.1843
0.5724,-5.8466
0.5729,-7.0674
0.5734,2.3937
0.5739,17.0430
0.5744,22.5365
0.5749,14.6014
0.5754,2.3937
0.5759,-4.0154
0.5764,-5.8466
0.5769,-6.7622
0.5774,-7.3726
0.5779,-4.6258
0.5784,2.0885
0.5789,11.2443
0.5794,17.9586
0.5799,18.8742
0.5804,17.3482
0.5809,23.7573
0.5814,43.9001
0.5819,69.2312
0.5824,84.1858
0.5829,84.7962
0.5834,79.9130
0.5839,73.5040
0.5844,60.3806
0.5849,40.8482
0.5854,28.3352
0.5859,29.2508
0.5864,28.0300
0.5869,6.9716
0.5874,-24.4634
0.5879,-40.9439
0.5884,-33.0089
0.5889,-16.2232
0.5894,-4.3206
0.5899,4.2248
0.5904,15.2118
0.5909,23.1469
0.5914,22.8417
0.5919,17.9586
0.5924,12.7703
0.5929,5.4456
0.5934,-4.0154
0.5939,-8.5933
0.5944,-2.1843
0.5949,8.4976
0.5954,13.3807
0.5959,11.5495
0.5964,10.6339
0.5969,12.4651
0.5974,11.8547
0.5979,5.7508
0.5984,-1.8791
0.5989,-7.3726
0.5994,-9.2037
0.5999,-7.9829
0.6004,-5.5414
0.6009,-4.6258
0.6014,-5.5414
0.6019,-5.8466
0.6024,-4.3206
0.6029,-4.3206
0.6034,-9.5089
0.6039,-18.9699
0.6044,-25.9894
0.6049,-25.9894
0.6054,-18.6648
0.6059,-9.2037
0.6064,-4.3206
0.6069,-4.0154
0.6074,-3.7102
0.6079,1.1729
0.6084,7.8872
0.6089,9.4131
0.6094,4.5300
0.6099,0.2573
0.6104,2.6989
0.6109,10.0235
0.6114,15.2118
0.6119,17.0430
0.6124,16.7378
0.6129,13.3807
0.6134,2.6989
0.6139,-13.7816
0.6144,-27.2102
0.6149,-30.2621
0.6154,-27.5154
0.6159,-29.9569
0.6164,-39.4180
0.6169,-44.9115
0.6174,-38.1972
0.6179,-24.1582
0.6184,-11.6453
0.6189,0.8677
0.6194,18.8742
0.6199,37.1858
0.6204,43.9001
0.6209,37.1858
0.6214,25.8936
0.6219,14.9066
0.6224,0.2573
0.6229,-17.1388
0.6234,-29.6517
0.6239,-36.0608
0.6244,-47.3530
0.6249,-69.3270
0.6254,-92.2166
0.6259,-102.5932
0.6264,-100.7620
0.6269,-94.6582
0.6274,-88.2491
0.6279,-82.1452
0.6284,-75.4309
0.6289,-64.7491
0.6294,-50.7102
0.6299,-45.5219
0.6304,-58.9504
0.6309,-76.3465
0.6314,-68.4114
0.6319,-29.3466
0.6324,8.8027
0.6329,17.3482
0.6334,3.9196
0.6339,-5.2362
0.6344,-1.8791
0.6349,5.4456
0.6354,17.3482
0.6359,36.8806
0.6364,53.6663
0.6369,52.4455
0.6374,36.5754
0.6379,24.9780
0.6384,23.7573
0.6389,23.4521
0.6394,21.6209
0.6399,28.9456
0.6404,48.7832
0.6409,63.4325
0.6414,55.4975
0.6419,27.7248
0.6424,-0.9635
0.6429,-16.2232
0.6434,-15.3076
0.6439,-4.0154
0.6444,7.8872
0.6449,14.6014
0.6454,16.7378
0.6459,18.8742
0.6464,23.1469
0.6469,27.7248
0.6474,31.3871
0.6479,33.8287
0.6484,35.0495
0.6489,35.0495
0.6494,33.8287
0.6499,31.3871
0.6504,28.0300
0.6509,25.2832
0.6514,24.6729
0.6519,24.6729
0.6524,22.2313
0.6529,19.7897
0.6534,21.9261
0.6539,28.0300
0.6544,31.6923
0.6549,30.4715
0.6554,30.1664
0.6559,34.7443
0.6564,41.4585
0.6569,46.0365
0.6574,46.0365
0.6579,34.7443
0.6584,4.2248
0.6589,-40.3336
0.6594,-78.7880
0.6599,-95.8789
0.6604,-100.4569
0.6609,-107.7815
0.6614,-118.7685
0.6619,-119.6841
0.6624,-105.3400
0.6629,-85.1971
0.6634,-70.5478
0.6639,-59.5608
0.6644,-43.6907
0.6649,-18.6648
0.6654,13.3807
0.6659,48.7832
0.6664,83.5754
0.6669,113.4844
0.6674,136.9844
0.6679,153.4649
0.6684,163.8415
0.6689,169.9454
0.6694,173.9129
0.6699,177.8804
0.6704,183.9843
0.6709,192.5298
0.6714,202.6012
0.6719,212.9778
0.6724,223.0492
0.6729,233.1206
0.6734,238.9193
0.6739,233.4258
0.6744,216.3349
0.6749,199.8544
0.6754,198.9389
0.6759,212.0622
0.6764,221.8284
0.6769,215.4194
0.6774,201.3804
0.6779,194.9713
0.6784,194.0558
0.6789,177.8804
0.6794,133.6273
0.6799,75.6403
0.6804,32.6079
0.6809,21.6209
0.6814,31.6923
0.6819,36.8806
0.6824,18.2638
0.6829,-18.6648
0.6834,-51.0154
0.6839,-58.3400
0.6844,-44.9115
0.6849,-31.4829
0.6854,-28.4310
0.6859,-25.3790
0.6864,-8.8985
0.6869,15.2118
0.6874,31.9975
0.6879,37.1858
0.6884,41.7637
0.6889,50.0040
0.6894,51.5300
0.6899,36.8806
0.6904,13.0755
0.6909,-4.6258
0.6914,-14.6972
0.6919,-27.5154
0.6924,-48.5738
0.6929,-68.4114
0.6934,-74.8205
0.6939,-66.5803
0.6944,-54.3725
0.6949,-48.8790
0.6954,-53.1517
0.6959,-62.0024
0.6964,-68.1062
0.6969,-69.3270
0.6974,-67.4959
0.6979,-65.6647
0.6984,-65.0543
0.6989,-65.6647
0.6994,-66.8855
0.6999,-67.1907
0.7004,-65.9699
0.7009,-71.4634
0.7014,-94.0478
0.7019,-132.5023
0.7024,-166.0736
0.7029,-172.7879
0.7034,-154.4763
0.7039,-133.7230
0.7044,-128.8399
0.7049,-135.5542
0.7054,-138.3010
0.7059,-130.9763
0.7064,-121.8205
0.7069,-119.9893
0.7074,-125.7880
0.7079,-131.8919
0.7084,-133.7230
0.7089,-131.8919
0.7094,-130.3659
0.7099,-131.2815
0.7104,-131.5867
0.7109,-130.0607
0.7114,-127.9243
0.7119,-125.1776
0.7124,-120.5997
0.7129,-114.4958
0.7134,-111.4439
0.7139,-114.8010
0.7144,-122.1257
0.7149,-128.2295
0.7154,-131.2815
0.7159,-130.0607
0.7164,-123.3464
0.7169,-114.1906
0.7174,-109.3075
0.7179,-112.9698
0.7184,-118.1581
0.7189,-117.8529
0.7194,-115.7166
0.7199,-116.0218
0.7204,-114.4958
0.7209,-103.5088
0.7214,-87.9439
0.7219,-79.3984
0.7224,-78.7880
0.7229,-76.9569
0.7234,-71.1582
0.7239,-68.1062
0.7244,-67.1907
0.7249,-62.6127
0.7254,-60.7816
0.7259,-75.4309
0.7264,-99.5413
0.7269,-106.2555
0.7274,-84.2815
0.7279,-54.3725
0.7284,-38.5024
0.7289,-29.0414
0.7294,-8.5933
0.7299,18.5690
0.7304,37.4910
0.7309,48.7832
0.7314,60.9910
0.7319,65.2637
0.7324,42.9845
0.7329,-0.3531
0.7334,-36.3660
0.7339,-52.8465
0.7344,-65.6647
0.7349,-90.0802
0.7354,-112.3594
0.7359,-111.1387
0.7364,-86.7231
0.7369,-59.8660
0.7374,-44.9115
0.7379,-34.8401
0.7384,-15.3076
0.7389,12.4651
0.7394,35.0495
0.7399,43.5949
0.7404,53.6663
0.7409,86.6273
0.7414,137.5948
0.7419,173.9129
0.7424,171.4714
0.7429,143.0883
0.7434,117.7571
0.7439,104.0234
0.7444,92.1208
0.7449,79.3027
0.7454,72.2832
0.7459,69.5364
0.7464,58.5494
0.7469,36.2702
0.7474,12.7703
0.7479,-3.0998
0.7484,-16.2232
0.7489,-31.4829
0.7494,-45.5219
0.7499,-52.2361
0.7504,-49.4894
0.7509,-38.8076
0.7514,-22.9375
0.7519,-7.3726
0.7524,3.0041
0.7529,10.0235
0.7534,17.0430
0.7539,23.7573
0.7544,24.9780
0.7549,19.1794
0.7554,11.8547
0.7559,7.5820
0.7564,6.3612
0.7569,6.9716
0.7574,11.2443
0.7579,18.2638
0.7584,24.6729
0.7589,28.3352
0.7594,30.4715
0.7599,31.0819
0.7604,28.9456
0.7609,24.6729
0.7614,22.8417
0.7619,24.9780
0.7624,28.3352
0.7629,31.3871
0.7634,34.4391
0.7639,39.3222
0.7644,43.9001
0.7649,46.0365
0.7654,46.3417
0.7659,45.7313
0.7664,42.9845
0.7669,39.0170
0.7674,36.5754
0.7679,39.3222
0.7684,47.8676
0.7689,58.2442
0.7694,66.7897
0.7699,68.6209
0.7704,60.9910
0.7709,46.3417
0.7714,31.0819
0.7719,20.4001
0.7724,12.7703
0.7729,6.3612
0.7734,3.9196
0.7739,9.7183
0.7744,20.0949
0.7749,26.8092
0.7754,29.5560
0.7759,37.1858
0.7764,56.7183
0.7769,83.5754
0.7774,108.2961
0.7779,120.5039
0.7784,113.7896
0.7789,90.5948
0.7794,66.1793
0.7799,57.3287
0.7804,64.3481
0.7809,71.0624
0.7814,66.1793
0.7819,54.5819
0.7824,43.9001
0.7829,33.8287
0.7834,24.6729
0.7839,26.8092
0.7844,43.2897
0.7849,56.7183
0.7854,46.3417
0.7859,16.1274
0.7864,-5.2362
0.7869,-1.5739
0.7874,14.6014
0.7879,21.9261
0.7884,17.3482
0.7889,11.2443
0.7894,4.8352
0.7899,-5.8466
0.7904,-14.3920
0.7909,-2.7946
0.7914,31.0819
0.7919,64.3481
0.7924,72.8936
0.7929,63.1274
0.7934,61.6014
0.7939,79.9130
0.7944,100.6663
0.7949,98.8351
0.7954,69.2312
0.7959,30.1664
0.7964,7.8872
0.7969,12.1599
0.7974,29.8612
0.7979,36.2702
0.7984,26.1988
0.7989,22.5365
0.7994,50.0040
0.7999,99.4455
0.8004,136.3740
0.8009,138.2052
0.8014,114.7052
0.8019,85.7117
0.8024,60.0754
0.8029,37.4910
0.8034,20.4001
0.8039,12.4651
0.8044,9.1079
0.8049,3.3092
0.8054,-5.5414
0.8059,-18.3596
0.8064,-36.9764
0.8069,-59.8660
0.8074,-75.1257
0.8079,-69.6322
0.8084,-46.7426
0.8089,-24.4634
0.8094,-17.7492
0.8099,-22.0219
0.8104,-22.9375
0.8109,-14.0868
0.8114,-2.1843
0.8119,3.0041
0.8124,1.1729
0.8129,-0.3531
0.8134,1.1729
0.8139,2.0885
0.8144,-0.3531
0.8149,-2.7946
0.8154,-1.8791
0.8159,-0.6583
0.8164,-3.0998
0.8169,-8.2881
0.8174,-12.8661
0.8179,-18.3596
0.8184,-25.6842
0.8189,-29.9569
0.8194,-27.8206
0.8199,-24.4634
0.8204,-27.2102
0.8209,-33.0089
0.8214,-33.0089
0.8219,-27.8206
0.8224,-23.5479
0.8229,-21.4115
0.8234,-16.5284
0.8239,-11.0349
0.8244,-10.1193
0.8249,-12.2557
0.8254,-13.1713
0.8259,-16.8336
0.8264,-28.1258
0.8269,-40.3336
0.8274,-42.7751
0.8279,-39.1128
0.8284,-41.8595
0.8289,-54.3725
0.8294,-70.8530
0.8299,-89.1647
0.8304,-105.9504
0.8309,-109.3075
0.8314,-95.5737
0.8319,-88.5543
0.8324,-108.3919
0.8329,-129.4503
0.8334,-104.1192
0.8339,-30.5673
0.8344,35.6599
0.8349,52.4455
0.8354,34.1339
0.8359,19.1794
0.8364,23.1469
0.8369,43.2897
0.8374,79.3027
0.8379,122.3351
0.8384,151.6337
0.8389,162.6207
0.8394,181.5428
0.8399,221.8284
0.8404,254.4842
0.8409,241.9713
0.8414,187.9519
0.8419,123.5558
0.8424,72.5884
0.8429,50.3092
0.8434,74.1143
0.8438,136.0688
0.8443,181.2376
0.8448,151.9389
0.8453,54.8871
0.8458,-53.4569
0.8463,-143.4893
0.8468,-236.8788
0.8473,-349.8007
0.8478,-447.7681
0.8483,-479.2031
0.8488,-432.2032
0.8493,-339.7293
0.8498,-241.4567
0.8503,-158.4438
0.8508,-93.1322
0.8513,-41.8595
0.8518,-4.9310
0.8523,11.2443
0.8528,5.7508
0.8533,-6.4570
0.8538,-5.5414
0.8543,11.8547
0.8548,32.3027
0.8553,43.2897
0.8558,46.0365
0.8563,45.1209
0.8568,41.4585
0.8573,35.6599
0.8578,33.8287
0.8583,36.5754
0.8588,37.4910
0.8593,33.2183
0.8598,30.1664
0.8603,32.9131
0.8608,35.9650
0.8613,31.0819
0.8618,19.1794
0.8623,6.6664
0.8628,-4.6258
0.8633,-18.3596
0.8638,-33.3141
0.8643,-44.9115
0.8648,-53.1517
0.8653,-61.3920
0.8658,-69.9374
0.8663,-75.1257
0.8668,-76.3465
0.8673,-76.3465
0.8678,-76.3465
0.8683,-73.5997
0.8688,-68.7166
0.8693,-68.1062
0.8698,-75.7361
0.8703,-87.9439
0.8708,-98.3205
0.8713,-104.7296
0.8718,-106.5607
0.8723,-99.5413
0.8728,-82.4504
0.8733,-62.0024
0.8738,-51.0154
0.8743,-53.7621
0.8748,-63.5283
0.8753,-69.3270
0.8758,-63.8335
0.8763,-42.7751
0.8768,-11.3401
0.8773,15.8222
0.8778,25.8936
0.8783,20.7053
0.8788,11.8547
0.8793,-0.3531
0.8798,-25.0738
0.8803,-57.4244
0.8808,-71.1582
0.8813,-49.1842
0.8818,-7.9829
0.8823,17.9586
0.8828,13.0755
0.8833,-10.7297
0.8838,-35.1452
0.8843,-47.3530
0.8848,-41.8595
0.8853,-18.6648
0.8858,10.3287
0.8863,30.7767
0.8868,35.3547
0.8873,33.2183
0.8878,36.5754
0.8883,47.5624
0.8888,57.3287
0.8893,60.0754
0.8898,60.9910
0.8903,69.5364
0.8908,85.4065
0.8913,98.2247
0.8918,102.1922
0.8923,104.0234
0.8928,112.2637
0.8933,127.5234
0.8938,146.4454
0.8943,171.1662
0.8948,200.7700
0.8953,225.4908
0.8958,233.7310
0.8963,229.1531
0.8968,220.9129
0.8973,209.0103
0.8978,188.2571
0.8983,163.2311
0.8988,142.7831
0.8993,123.2506
0.8998,88.7637
0.9003,30.4715
0.9008,-42.4699
0.9013,-112.3594
0.9018,-159.0542
0.9023,-163.9373
0.9028,-129.1451
0.9033,-85.5023
0.9038,-65.6647
0.9043,-69.0218
0.9048,-61.6972
0.9053,-18.0544
0.9058,54.5819
0.9063,128.4390
0.9068,174.2181
0.9073,180.0168
0.9078,154.3805
0.9083,122.9455
0.9088,99.1403
0.9093,71.9780
0.9098,28.3352
0.9103,-16.5284
0.9108,-36.0608
0.9113,-25.3790
0.9118,-3.7102
0.9123,13.0755
0.9128,20.0949
0.9133,3.9196
0.9138,-48.8790
0.9143,-125.1776
0.9148,-184.6905
0.9153,-202.0866
0.9158,-187.4373
0.9163,-167.2944
0.9168,-153.8659
0.9173,-143.4893
0.9178,-124.8724
0.9183,-90.9958
0.9188,-47.9634
0.9193,-10.4245
0.9198,11.8547
0.9203,22.8417
0.9208,26.8092
0.9213,25.5884
0.9218,28.9456
0.9223,48.1728
0.9228,72.5884
0.9233,71.3676
0.9238,32.6079
0.9243,-18.3596
0.9248,-54.9829
0.9253,-76.9569
0.9258,-89.7750
0.9263,-82.7556
0.9268,-51.9309
0.9273,-20.1907
0.9278,-7.6778
0.9283,-7.3726
0.9288,-14.0868
0.9293,-46.4374
0.9298,-111.4439
0.9303,-170.6516
0.9308,-181.0282
0.9313,-153.8659
0.9318,-131.8919
0.9323,-126.0932
0.9328,-118.1581
0.9333,-110.8335
0.9338,-128.8399
0.9343,-166.6840
0.9348,-180.4178
0.9353,-146.5412
0.9358,-91.9114
0.9363,-53.7621
0.9368,-37.5868
0.9373,-30.2621
0.9378,-24.1582
0.9383,-16.8336
0.9388,-3.4050
0.9393,14.6014
0.9398,27.7248
0.9403,31.9975
0.9408,38.4066
0.9413,54.5819
0.9418,72.2832
0.9423,77.7767
0.9428,68.6209
0.9433,50.0040
0.9438,29.2508
0.9443,16.4326
0.9448,18.2638
0.9453,31.9975
0.9458,46.9520
0.9463,57.3287
0.9468,63.1274
0.9473,61.2962
0.9478,47.2572
0.9483,28.0300
0.9488,20.4001
0.9493,29.5560
0.9498,46.6469
0.9503,65.8741
0.9508,91.5104
0.9513,122.3351
0.9518,145.5298
0.9523,156.2116
0.9528,169.3350
0.9533,197.1077
0.9538,225.1856
0.9543,229.1531
0.9548,205.3479
0.9553,175.1337
0.9558,158.6532
0.9563,159.2636
0.9568,164.1467
0.9573,153.1597
0.9578,105.2442
0.9583,19.4846
0.9588,-74.2101
0.9593,-139.8269
0.9598,-168.2100
0.9603,-179.8074
0.9608,-189.8788
0.9613,-189.2684
0.9618,-166.3788
0.9623,-131.8919
0.9628,-109.3075
0.9633,-110.5283
0.9638,-128.2295
0.9643,-148.9828
0.9648,-161.8009
0.9653,-158.4438
0.9658,-138.6062
0.9663,-111.4439
0.9668,-88.8595
0.9673,-73.9049
0.9678,-62.3076
0.9683,-48.5738
0.9688,-28.4310
0.9693,-0.3531
0.9698,30.7767
0.9703,50.3092
0.9708,50.0040
0.9713,39.6274
0.9718,37.7962
0.9723,48.4780
0.9728,58.2442
0.9733,56.7183
0.9738,48.4780
0.9743,45.4261
0.9748,51.5300
0.9753,61.2962
0.9758,68.0105
0.9763,68.0105
0.9768,63.4325
0.9773,57.3287
0.9778,53.0559
0.9783,51.2248
0.9788,51.5300
0.9793,53.0559
0.9798,52.4455
0.9803,48.4780
0.9808,43.9001
0.9813,45.7313
0.9818,55.1923
0.9823,63.4325
0.9828,65.5689
0.9833,64.9585
0.9838,64.3481
0.9843,61.6014
0.9848,57.0235
0.9853,59.1598
0.9858,65.2637
0.9863,51.2248
0.9868,4.5300
0.9873,-47.9634
0.9878,-68.1062
0.9883,-56.2037
0.9888,-45.2167
0.9893,-52.2361
0.9898,-62.3076
0.9903,-64.4439
0.9908,-68.4114
0.9913,-76.9569
0.9918,-73.9049
0.9923,-51.9309
0.9928,-26.9050
0.9933,-13.4764
0.9938,-6.4570
0.9943,-1.2687
0.9948,-4.0154
0.9953,-11.3401
0.9958,-4.6258
0.9963,18.5690
0.9968,40.2378
0.9973,51.5300
0.9978,69.2312
0.9983,95.1728
0.9988,104.3286
0.9993,88.4585
0.9998,78.9975
1.0003,94.8676
1.0008,104.9390
1.0013,77.1663
1.0018,25.5884
1.0023,-19.8855
1.0028,-69.3270
1.0033,-139.2165
1.0038,-200.8658
1.0043,-206.3593
1.0048,-160.2750
1.0053,-112.0542
1.0058,-85.8075
1.0063,-63.2231
1.0068,-36.6712
1.0073,-26.2946
1.0078,-37.2816
1.0083,-43.9959
1.0088,-28.4310
1.0093,-3.0998
1.0098,13.9911
1.0103,23.7573
1.0108,27.4196
1.0113,20.7053
1.0118,4.5300
1.0123,-8.2881
1.0128,-11.3401
1.0133,-8.2881
1.0138,-0.3531
1.0143,12.7703
1.0148,19.1794
1.0153,7.2768
1.0158,-12.8661
1.0163,-19.2751
1.0168,-9.2037
1.0173,0.8677
1.0178,6.3612
1.0183,16.4326
1.0188,31.6923
1.0193,38.7118
1.0198,34.1339
1.0203,31.3871
1.0208,34.1339
1.0213,29.8612
1.0218,13.6859
1.0223,1.4781
1.0228,6.3612
1.0233,21.0105
1.0238,32.3027
1.0243,38.1014
1.0248,42.9845
1.0253,46.9520
1.0258,48.1728
1.0263,42.3741
1.0268,24.0625
1.0273,-3.4050
1.0278,-20.1907
1.0283,-8.2881
1.0288,20.4001
1.0293,31.9975
1.0298,10.6339
1.0303,-22.6323
1.0308,-39.1128
1.0313,-29.6517
1.0318,-5.5414
1.0323,14.6014
1.0328,12.7703
1.0333,-15.6128
1.0338,-47.3530
1.0343,-48.5738
1.0348,-14.0868
1.0353,23.7573
1.0358,35.9650
1.0363,27.4196
1.0368,19.7897
1.0373,15.2118
1.0378,-1.5739
1.0383,-32.3985
1.0388,-56.2037
1.0393,-53.7621
1.0398,-29.9569
1.0403,-4.3206
1.0408,11.8547
1.0413,23.4521
1.0418,36.2702
1.0423,46.3417
1.0428,44.8157
1.0433,31.9975
1.0438,17.0430
1.0443,4.5300
1.0448,-8.8985
1.0453,-24.1582
1.0458,-32.0933
1.0463,-25.3790
1.0468,-11.6453
1.0473,-3.4050
1.0478,-4.3206
1.0483,-8.5933
1.0488,-15.3076
1.0493,-30.2621
1.0498,-53.4569
1.0503,-72.9894
1.0508,-78.7880
1.0513,-70.5478
1.0518,-58.3400
1.0523,-49.4894
1.0528,-44.9115
1.0533,-39.7232
1.0538,-33.0089
1.0543,-27.2102
1.0548,-25.0738
1.0553,-25.0738
1.0558,-25.0738
1.0563,-26.9050
1.0568,-31.7881
1.0573,-36.6712
1.0578,-34.5349
1.0583,-25.0738
1.0588,-14.0868
1.0593,-7.0674
1.0598,-4.0154
1.0603,-3.4050
1.0608,-4.3206
1.0613,-5.8466
1.0618,-6.7622
1.0623,-8.8985
1.0628,-15.0024
1.0633,-25.6842
1.0638,-36.3660
1.0643,-44.3011
1.0648,-50.0998
1.0653,-54.6777
1.0658,-57.1192
1.0663,-56.8141
1.0668,-56.8141
1.0673,-58.6452
1.0678,-58.6452
1.0683,-51.3206
1.0688,-36.6712
1.0693,-19.8855
1.0698,-4.0154
1.0703,13.0755
1.0708,33.2183
1.0713,52.1404
1.0718,64.9585
1.0723,72.2832
1.0728,80.2182
1.0733,91.8156
1.0738,103.1078
1.0743,110.4325
1.0748,115.9260
1.0753,122.9455
1.0758,129.0493
1.0763,129.9649
1.0768,127.5234
1.0773,128.1338
1.0778,132.4065
1.0783,136.9844
1.0788,139.7311
1.0793,140.6467
1.0798,135.4584
1.0803,124.4714
1.0808,115.9260
1.0813,118.3675
1.0818,123.5558
1.0823,113.7896
1.0828,89.3741
1.0833,72.5884
1.0838,76.8611
1.0843,91.8156
1.0848,100.0559
1.0853,101.5818
1.0858,104.6338
1.0863,106.7702
1.0868,100.3611
1.0873,87.2377
1.0878,77.1663
1.0883,73.8092
1.0888,70.7572
1.0893,65.2637
1.0898,61.6014
1.0903,60.6858
1.0908,59.4650
1.0913,57.3287
1.0918,56.7183
1.0923,56.7183
1.0928,52.4455
1.0933,42.3741
1.0938,31.0819
1.0943,22.2313
1.0948,15.2118
1.0953,9.1079
1.0958,3.6144
1.0963,-1.5739
1.0968,-7.0674
1.0973,-12.5609
1.0978,-17.4440
1.0983,-22.3271
1.0988,-28.1258
1.0993,-34.8401
1.0998,-40.9439
1.1003,-49.7946
1.1008,-63.5283
1.1013,-80.0088
1.1018,-93.1322
1.1023,-100.1517
1.1028,-104.7296
1.1033,-109.3075
1.1038,-113.2750
1.1043,-115.1062
1.1048,-116.6322
1.1053,-119.3789
1.1058,-121.5153
1.1063,-121.5153
1.1068,-121.2101
1.1073,-123.0412
1.1078,-124.5672
1.1083,-122.7360
1.1088,-116.6322
1.1093,-109.3075
1.1098,-103.5088
1.1103,-100.4569
1.1108,-100.4569
1.1113,-102.8984
1.1118,-103.5088
1.1123,-100.1517
1.1128,-96.1841
1.1133,-94.9634
1.1138,-96.4893
1.1143,-95.5737
1.1148,-92.5218
1.1153,-91.9114
1.1158,-96.1841
1.1163,-101.0672
1.1168,-100.7620
1.1173,-95.2685
1.1178,-87.9439
1.1183,-81.8400
1.1188,-76.3465
1.1193,-71.1582
1.1198,-67.8011
1.1203,-65.6647
1.1208,-64.7491
1.1213,-63.5283
1.1218,-61.0868
1.1223,-56.8141
1.1228,-51.9309
1.1233,-47.9634
1.1238,-44.6063
1.1243,-39.7232
1.1248,-35.1452
1.1253,-34.5349
1.1258,-38.5024
1.1263,-42.1647
1.1268,-41.8595
1.1273,-39.4180
1.1278,-39.4180
1.1283,-41.2491
1.1288,-41.5543
1.1293,-38.1972
1.1298,-33.9245
1.1303,-33.6193
1.1308,-38.5024
1.1313,-46.7426
1.1318,-54.3725
1.1323,-59.5608
1.1328,-62.0024
1.1333,-63.2231
1.1338,-65.0543
1.1343,-66.5803
1.1348,-65.3595
1.1353,-61.3920
1.1358,-54.3725
1.1363,-46.1322
1.1368,-39.4180
1.1373,-36.3660
1.1378,-36.0608
1.1383,-34.2297
1.1388,-29.0414
1.1393,-23.5479
1.1398,-20.1907
1.1403,-16.8336
1.1408,-10.1193
1.1413,-1.8791
1.1418,2.6989
1.1423,4.5300
1.1428,8.1924
1.1433,15.2118
1.1438,20.7053
1.1443,24.3677
1.1448,32.3027
1.1453,46.9520
1.1458,60.9910
1.1463,65.5689
1.1468,64.6533
1.1473,70.4520
1.1478,84.7962
1.1483,97.6143
1.1488,99.4455
1.1493,92.4260
1.1498,85.4065
1.1503,82.6598
1.1508,80.2182
1.1513,75.3351
1.1518,67.7053
1.1523,60.6858
1.1528,57.0235
1.1533,56.4131
1.1538,57.3287
1.1543,56.1079
1.1548,51.5300
1.1553,45.4261
1.1558,39.9326
1.1563,35.6599
1.1568,31.0819
1.1573,26.1988
1.1578,21.9261
1.1583,19.7897
1.1588,18.8742
1.1593,17.6534
1.1598,15.2118
1.1603,12.1599
1.1608,10.0235
1.1613,10.6339
1.1618,13.3807
1.1623,15.5170
1.1628,15.5170
1.1633,14.6014
1.1638,16.1274
1.1643,20.0949
1.1648,24.3677
1.1653,26.8092
1.1658,27.1144
1.1663,25.2832
1.1668,20.7053
1.1673,16.1274
1.1678,14.2962
1.1683,15.5170
1.1688,17.0430
1.1693,17.0430
1.1698,16.7378
1.1703,16.1274
1.1708,13.3807
1.1713,9.7183
1.1718,9.1079
1.1723,13.3807
1.1728,19.4846
1.1733,23.4521
1.1738,25.2832
1.1743,26.5040
1.1748,25.2832
1.1753,20.7053
1.1758,15.8222
1.1763,14.6014
1.1768,16.1274
1.1773,17.3482
1.1778,17.0430
1.1783,17.3482
1.1788,20.0949
1.1793,25.2832
1.1798,31.3871
1.1803,35.9650
1.1808,36.2702
1.1813,32.6079
1.1818,29.2508
1.1823,29.5560
1.1828,32.6079
1.1833,34.4391
1.1838,33.5235
1.1843,29.8612
1.1848,24.3677
1.1853,19.1794
1.1858,17.3482
1.1863,19.1794
1.1868,21.0105
1.1873,20.0949
1.1878,19.4846
1.1883,22.8417
1.1888,28.3352
1.1893,32.3027
1.1898,32.6079
1.1903,30.1664
1.1908,24.6729
1.1913,18.8742
1.1918,16.1274
1.1923,18.8742
1.1928,23.4521
1.1933,24.0625
1.1938,20.4001
1.1943,17.0430
1.1948,15.5170
1.1953,15.2118
1.1958,16.7378
1.1963,21.6209
1.1968,28.6404
1.1973,33.2183
1.1978,33.5235
1.1983,32.3027
1.1988,34.1339
1.1993,38.1014
1.1998,41.1534
1.2003,42.6793
1.2008,42.3741
1.2013,41.7637
1.2018,40.2378
1.2023,36.5754
1.2028,30.4715
1.2033,24.0625
1.2038,22.2313
1.2043,26.8092
1.2048,32.9131
1.2053,33.5235
1.2058,26.5040
1.2063,16.4326
1.2068,9.1079
1.2073,5.1404
1.2078,2.3937
1.2083,-0.3531
1.2088,-0.9635
1.2093,-0.6583
1.2098,-0.3531
1.2103,1.4781
1.2108,7.5820
1.2113,16.4326
1.2118,21.6209
1.2123,19.7897
1.2128,15.8222
1.2133,16.4326
1.2138,20.4001
1.2143,21.0105
1.2148,15.5170
1.2153,8.4976
1.2158,5.1404
1.2163,3.9196
1.2168,3.0041
1.2173,3.0041
1.2178,4.5300
1.2183,4.8352
1.2188,1.7833
1.2193,-2.1843
1.2198,-5.8466
1.2203,-9.5089
1.2208,-15.0024
1.2213,-19.5803
1.2218,-19.8855
1.2223,-18.0544
1.2228,-18.0544
1.2233,-21.1063
1.2238,-22.6323
1.2243,-19.2751
1.2248,-13.1713
1.2253,-8.2881
1.2258,-7.9829
1.2263,-11.3401
1.2268,-14.0868
1.2273,-12.5609
1.2278,-9.5089
1.2283,-10.1193
1.2288,-15.3076
1.2293,-19.5803
1.2298,-18.9699
1.2303,-18.3596
1.2308,-22.9375
1.2313,-30.8725
1.2318,-36.6712
1.2323,-38.8076
1.2328,-39.7232
1.2333,-39.4180
1.2338,-34.8401
1.2343,-26.5998
1.2348,-20.4959
1.2353,-20.1907
1.2358,-23.2427
1.2363,-26.2946
1.2368,-29.3466
1.2373,-33.0089
1.2378,-34.8401
1.2383,-31.7881
1.2388,-26.2946
1.2393,-21.4115
1.2398,-19.2751
1.2403,-18.6648
1.2408,-18.9699
1.2413,-20.1907
1.2418,-22.3271
1.2423,-25.9894
1.2428,-30.8725
1.2433,-35.4504
1.2438,-38.5024
1.2443,-41.2491
1.2448,-45.2167
1.2453,-47.6582
1.2458,-44.9115
1.2463,-40.0284
1.2468,-41.5543
1.2473,-51.9309
1.2478,-61.0868
1.2483,-58.9504
1.2488,-47.6582
1.2493,-37.5868
1.2498,-33.0089
1.2503,-31.4829
1.2508,-31.1777
1.2513,-33.0089
1.2518,-37.2816
1.2523,-39.7232
1.2528,-36.3660
1.2533,-27.8206
1.2538,-17.7492
1.2543,-9.2037
1.2548,-4.6258
1.2553,-4.3206
1.2558,-6.1518
1.2563,-7.6778
1.2568,-6.7622
1.2573,-3.4050
1.2578,2.0885
1.2583,9.1079
1.2588,13.6859
1.2593,13.3807
1.2598,10.0235
1.2603,6.9716
1.2608,5.7508
1.2613,5.4456
1.2618,6.3612
1.2623,7.8872
1.2628,8.8027
1.2633,7.8872
1.2638,5.4456
1.2643,3.0041
1.2648,1.4781
1.2653,1.1729
1.2658,1.7833
1.2663,3.3092
1.2668,5.4456
1.2673,6.0560
1.2678,4.5300
1.2683,1.1729
1.2688,-2.1843
1.2693,-4.6258
1.2698,-5.2362
1.2703,-3.7102
1.2708,-0.6583
1.2713,2.3937
1.2718,4.2248
1.2723,3.9196
1.2728,1.7833
1.2733,-0.0479
1.2738,-0.6583
1.2743,-2.1843
1.2748,-4.6258
1.2753,-6.4570
1.2758,-5.2362
1.2763,-2.7946
1.2768,-0.9635
1.2773,-0.3531
1.2778,0.2573
1.2783,1.7833
1.2788,0.8677
1.2793,-2.4894
1.2798,-6.7622
1.2803,-7.6778
1.2808,-3.4050
1.2813,3.9196
1.2818,10.9391
1.2823,13.6859
1.2828,11.8547
1.2833,9.1079
1.2838,8.4976
1.2843,9.7183
1.2848,10.9391
1.2853,11.5495
1.2858,12.7703
1.2863,13.3807
1.2868,10.9391
1.2873,6.6664
1.2878,4.8352
1.2883,8.4976
1.2888,15.5170
1.2893,21.6209
1.2898,23.7573
1.2903,21.9261
1.2908,17.0430
1.2913,11.8547
1.2918,9.4131
1.2923,9.4131
1.2928,10.0235
1.2933,10.3287
1.2938,11.8547
1.2943,15.2118
1.2948,17.6534
1.2953,15.2118
1.2958,10.3287
1.2963,7.8872
1.2968,10.3287
1.2973,14.6014
1.2978,17.6534
1.2983,19.7897
1.2988,21.9261
1.2993,22.8417
1.2998,21.0105
1.3003,19.1794
1.3008,20.4001
1.3013,22.8417
1.3018,22.2313
1.3023,16.7378
1.3028,10.3287
1.3033,6.6664
1.3038,4.5300
1.3043,2.3937
1.3048,-0.3531
1.3053,-3.0998
1.3058,-8.2881
1.3063,-15.6128
1.3068,-22.9375
1.3073,-27.5154
1.3078,-29.9569
1.3083,-31.7881
1.3088,-33.6193
1.3093,-34.8401
1.3098,-34.5349
1.3103,-32.7037
1.3108,-29.0414
1.3113,-25.0738
1.3118,-23.8531
1.3123,-25.6842
1.3128,-27.5154
1.3133,-26.2946
1.3138,-22.3271
1.3143,-16.8336
1.3148,-10.4245
1.3153,-3.7102
1.3158,-0.3531
1.3163,-0.9635
1.3168,-4.3206
1.3173,-6.4570
1.3178,-5.8466
1.3183,-5.2362
1.3188,-5.5414
1.3193,-6.4570
1.3198,-7.3726
1.3203,-8.5933
1.3208,-8.8985
1.3213,-7.0674
1.3218,-3.0998
1.3223,0.5625
1.3228,2.3937
1.3233,0.8677
1.3238,-2.7946
1.3243,-7.3726
1.3248,-9.8141
1.3253,-10.4245
1.3258,-11.9505
1.3263,-16.2232
1.3268,-21.7167
1.3273,-24.7686
1.3278,-23.2427
1.3283,-19.2751
1.3288,-15.3076
1.3293,-12.8661
1.3298,-11.0349
1.3303,-8.8985
1.3308,-5.5414
1.3313,-0.9635
1.3318,2.3937
1.3323,4.5300
1.3328,5.4456
1.3333,7.5820
1.3338,13.0755
1.3343,20.0949
1.3348,25.5884
1.3353,27.4196
1.3358,28.3352
1.3363,29.5560
1.3368,29.8612
1.3373,25.8936
1.3378,17.9586
1.3383,11.2443
1.3388,8.8027
1.3393,6.9716
1.3398,1.1729
1.3403,-5.5414
1.3408,-7.6778
1.3413,-3.0998
1.3418,2.6989
1.3423,6.0560
1.3428,8.1924
1.3433,10.9391
1.3438,10.3287
1.3443,3.9196
1.3448,-2.4894
1.3453,-0.9635
1.3458,7.5820
1.3463,15.2118
1.3468,17.9586
1.3473,20.4001
1.3478,24.6729
1.3483,24.9780
1.3488,17.0430
1.3493,6.0560
1.3498,1.7833
1.3503,5.4456
1.3508,10.3287
1.3513,13.6859
1.3518,16.7378
1.3523,19.7897
1.3528,19.7897
1.3533,16.4326
1.3538,13.0755
1.3543,11.8547
1.3548,11.2443
1.3553,8.1924
1.3558,1.7833
1.3563,-4.6258
1.3568,-6.4570
1.3573,1.7833
1.3578,19.1794
1.3583,36.2702
1.3588,44.5105
1.3593,43.2897
1.3598,38.4066
1.3603,35.0495
1.3608,32.9131
1.3613,28.9456
1.3618,20.4001
1.3623,6.9716
1.3628,-4.9310
1.3633,-5.8466
1.3638,6.6664
1.3643,22.8417
1.3648,28.9456
1.3653,25.2832
1.3658,20.7053
1.3663,19.1794
1.3668,15.8222
1.3673,9.1079
1.3678,4.8352
1.3683,6.9716
1.3688,9.7183
1.3693,5.4456
1.3698,-3.4050
1.3703,-11.6453
1.3708,-16.8336
1.3713,-22.6323
1.3718,-27.5154
1.3723,-27.8206
1.3728,-24.4634
1.3733,-22.9375
1.3738,-24.1582
1.3743,-20.1907
1.3748,-5.8466
1.3753,11.8547
1.3758,22.8417
1.3763,22.8417
1.3768,16.7378
1.3773,11.8547
1.3778,11.5495
1.3783,15.5170
1.3788,16.1274
1.3793,6.6664
1.3798,-12.5609
1.3803,-31.1777
1.3808,-38.5024
1.3813,-36.6712
1.3818,-36.0608
1.3823,-40.6387
1.3828,-47.6582
1.3833,-54.0673
1.3838,-58.9504
1.3843,-58.3400
1.3848,-49.4894
1.3853,-35.1452
1.3858,-21.7167
1.3863,-10.4245
1.3868,1.7833
1.3873,12.7703
1.3878,14.6014
1.3883,8.1924
1.3888,3.9196
1.3893,8.1924
1.3898,14.2962
1.3903,12.1599
1.3908,3.0041
1.3913,-3.0998
1.3918,-0.6583
1.3923,10.0235
1.3928,23.7573
1.3933,32.9131
1.3938,31.0819
1.3943,18.2638
1.3948,1.1729
1.3953,-15.0024
1.3958,-30.5673
1.3963,-41.5543
1.3968,-40.9439
1.3973,-28.7362
1.3978,-17.4440
1.3983,-18.6648
1.3988,-30.5673
1.3993,-41.8595
1.3998,-46.4374
1.4003,-44.6063
1.4008,-38.5024
1.4013,-30.2621
1.4018,-23.2427
1.4023,-19.2751
1.4028,-15.6128
1.4033,-9.8141
1.4038,-5.2362
1.4043,-4.9310
1.4048,-5.2362
1.4053,-3.4050
1.4058,-2.7946
1.4062,-6.7622
1.4067,-11.3401
1.4072,-11.6453
1.4077,-13.7816
1.4082,-23.2427
1.4087,-29.6517
1.4092,-16.5284
1.4097,11.5495
1.4102,28.9456
1.4107,16.4326
1.4112,-15.0024
1.4117,-39.4180
1.4122,-38.1972
1.4127,-8.8985
1.4132,38.7118
1.4137,88.7637
1.4142,121.7247
1.4147,128.7441
1.4152,119.5883
1.4157,114.0948
1.4162,120.8091
1.4167,132.1013
1.4172,134.8480
1.4177,126.9130
1.4182,114.7052
1.4187,103.1078
1.4192,92.4260
1.4197,84.1858
1.4202,84.4910
1.4207,98.8351
1.4212,121.7247
1.4217,143.0883
1.4222,156.5168
1.4227,161.4000
1.4232,158.0428
1.4237,142.7831
1.4242,110.4325
1.4247,61.2962
1.4252,5.1404
1.4257,-38.1972
1.4262,-50.7102
1.4267,-36.6712
1.4272,-29.0414
1.4277,-60.7816
1.4282,-127.0088
1.4287,-186.8269
1.4292,-206.0541
1.4297,-190.1840
1.4302,-167.2944
1.4307,-150.8139
1.4312,-133.4178
1.4317,-113.8854
1.4322,-109.6127
1.4327,-130.0607
1.4332,-158.1386
1.4337,-164.5477
1.4342,-144.0997
1.4347,-119.3789
1.4352,-109.6127
1.4357,-113.8854
1.4362,-123.0412
1.4367,-132.1971
1.4372,-135.5542
1.4377,-118.1581
1.4382,-75.4309
1.4387,-27.8206
1.4392,-2.7946
1.4397,-2.1843
1.4402,-5.5414
1.4407,3.6144
1.4412,24.3677
1.4417,48.1728
1.4422,70.1468
1.4427,88.4585
1.4432,101.2767
1.4437,109.8221
1.4442,113.7896
1.4447,110.7377
1.4452,100.6663
1.4457,85.7117
1.4462,64.9585
1.4467,32.9131
1.4472,-3.0998
1.4477,-25.3790
1.4482,-29.0414
1.4487,-34.2297
1.4492,-59.8660
1.4497,-97.4049
1.4502,-127.9243
1.4507,-147.4568
1.4512,-162.7165
1.4517,-167.9048
1.4522,-153.2555
1.4527,-127.3140
1.4532,-107.1711
1.4537,-95.2685
1.4542,-81.8400
1.4547,-65.3595
1.4552,-55.2881
1.4557,-52.2361
1.4562,-48.8790
1.4567,-47.0478
1.4572,-54.6777
1.4577,-66.8855
1.4582,-66.5803
1.4587,-47.3530
1.4592,-22.3271
1.4597,-1.8791
1.4602,15.2118
1.4607,29.5560
1.4612,32.3027
1.4617,17.9586
1.4622,-3.7102
1.4627,-20.8011
1.4632,-32.3985
1.4637,-43.3855
1.4642,-51.0154
1.4647,-45.5219
1.4652,-25.6842
1.4657,-2.4894
1.4662,12.7703
1.4667,22.2313
1.4672,28.0300
1.4677,21.9261
1.4682,-2.4894
1.4687,-30.5673
1.4692,-34.8401
1.4697,-10.1193
1.4702,16.1274
1.4707,17.6534
1.4712,-2.4894
1.4717,-27.5154
1.4722,-51.9309
1.4727,-75.1257
1.4732,-82.1452
1.4737,-59.2556
1.4742,-17.4440
1.4747,17.6534
1.4752,39.9326
1.4757,60.6858
1.4762,74.7247
1.4767,59.4650
1.4772,13.9911
1.4777,-25.9894
1.4782,-31.1777
1.4787,-11.9505
1.4792,-1.2687
1.4797,-15.6128
1.4802,-45.5219
1.4807,-76.3465
1.4812,-102.8984
1.4817,-126.0932
1.4822,-149.2880
1.4827,-174.9243
1.4832,-196.2879
1.4837,-202.3918
1.4842,-188.9632
1.4847,-163.6321
1.4852,-135.8594
1.4857,-108.3919
1.4862,-85.5023
1.4867,-75.1257
1.4872,-77.5673
1.4877,-71.7686
1.4882,-31.4829
1.4887,47.2572
1.4892,136.9844
1.4897,201.0752
1.4902,228.8479
1.4907,242.8869
1.4912,270.9647
1.4917,314.3023
1.4922,353.0620
1.4927,374.1205
1.4932,386.0230
1.4937,394.2633
1.4942,384.1919
1.4947,340.8543
1.4952,277.0686
1.4957,227.9323
1.4962,214.1986
1.4967,227.6271
1.4972,247.7700
1.4977,259.6725
1.4982,256.9258
1.4987,240.7505
1.4992,222.1336
1.4997,212.0622
1.5002,212.0622
1.5007,213.8934
1.5012,213.2830
1.5017,213.8934
1.5022,216.0297
1.5027,212.3674
1.5032,198.9389
1.5037,185.5103
1.5042,183.6791
1.5047,192.2246
1.5052,195.2765
1.5057,176.9649
1.5062,138.2052
1.5067,97.0039
1.5072,65.8741
1.5077,39.3222
1.5082,6.3612
1.5087,-26.9050
1.5092,-44.6063
1.5097,-45.5219
1.5102,-45.8271
1.5107,-52.8465
1.5112,-56.5089
1.5117,-54.6777
1.5122,-69.9374
1.5127,-114.1906
1.5132,-160.8853
1.5137,-173.3983
1.5142,-148.3724
1.5147,-112.3594
1.5152,-81.8400
1.5157,-56.2037
1.5162,-35.4504
1.5167,-25.0738
1.5172,-18.0544
1.5177,-1.2687
1.5182,21.3157
1.5187,35.6599
1.5192,40.5430
1.5197,48.4780
1.5202,57.9390
1.5207,52.7507
1.5212,31.9975
1.5217,15.5170
1.5222,14.2962
1.5227,16.4326
1.5232,10.3287
1.5237,-0.3531
1.5242,-11.9505
1.5247,-30.8725
1.5252,-57.1192
1.5257,-77.8725
1.5262,-87.0283
1.5267,-93.4374
1.5272,-105.0348
1.5277,-117.2425
1.5282,-129.1451
1.5287,-150.5087
1.5292,-183.4697
1.5297,-210.3268
1.5302,-214.2944
1.5307,-202.0866
1.5312,-190.7944
1.5317,-184.3853
1.5322,-175.5347
1.5327,-163.6321
1.5332,-155.0867
1.5337,-151.4243
1.5342,-146.2360
1.5347,-134.9438
1.5352,-118.4633
1.5357,-101.6776
1.5362,-90.6906
1.5367,-91.3010
1.5372,-102.5932
1.5377,-114.1906
1.5382,-116.9373
1.5387,-111.1387
1.5392,-103.8140
1.5397,-101.3724
1.5402,-106.2555
1.5407,-117.8529
1.5412,-129.4503
1.5417,-135.8594
1.5422,-137.6906
1.5427,-137.6906
1.5432,-134.9438
1.5437,-124.8724
1.5442,-110.8335
1.5447,-103.2036
1.5452,-104.7296
1.5457,-107.4763
1.5462,-105.0348
1.5467,-98.6257
1.5472,-92.5218
1.5477,-87.3335
1.5482,-84.5867
1.5487,-88.5543
1.5492,-98.0153
1.5497,-108.3919
1.5502,-118.4633
1.5507,-130.9763
1.5512,-140.7425
1.5517,-137.6906
1.5522,-123.9568
1.5527,-114.4958
1.5532,-118.7685
1.5537,-129.1451
1.5542,-136.4698
1.5547,-138.9113
1.5552,-130.9763
1.5557,-99.8465
1.5562,-46.7426
1.5567,4.8352
1.5572,39.6274
1.5577,72.8936
1.5582,125.6922
1.5587,187.3415
1.5592,224.5752
1.5597,222.7440
1.5602,200.7700
1.5607,180.0168
1.5612,165.6727
1.5617,153.7701
1.5622,141.5623
1.5627,122.9455
1.5632,93.0364
1.5637,61.2962
1.5642,46.6469
1.5647,56.1079
1.5652,76.5559
1.5657,91.5104
1.5662,96.6987
1.5667,93.9520
1.5672,85.7117
1.5677,77.4715
1.5682,78.9975
1.5687,89.0689
1.5692,94.8676
1.5697,87.2377
1.5702,71.9780
1.5707,54.5819
1.5712,31.0819
1.5717,-0.3531
1.5722,-24.4634
1.5727,-24.7686
1.5732,-0.6583
1.5737,30.1664
1.5742,54.5819
1.5747,72.8936
1.5752,89.3741
1.5757,102.4974
1.5762,107.9909
1.5767,103.7182
1.5772,92.1208
1.5777,78.6923
1.5782,68.3157
1.5787,59.7702
1.5792,47.8676
1.5797,31.9975
1.5802,19.7897
1.5807,17.9586
1.5812,24.0625
1.5817,30.4715
1.5822,31.9975
1.5827,25.5884
1.5832,7.5820
1.5837,-15.3076
1.5842,-26.5998
1.5847,-15.0024
1.5852,6.9716
1.5857,17.3482
1.5862,12.4651
1.5867,5.1404
1.5872,-0.3531
1.5877,-14.0868
1.5882,-39.1128
1.5887,-57.1192
1.5892,-50.7102
1.5897,-28.7362
1.5902,-13.7816
1.5907,-16.5284
1.5912,-30.5673
1.5917,-47.6582
1.5922,-65.0543
1.5927,-80.9244
1.5932,-92.2166
1.5937,-101.0672
1.5942,-114.8010
1.5947,-134.3334
1.5952,-147.1516
1.5957,-136.1646
1.5962,-94.6582
1.5967,-34.2297
1.5972,23.4521
1.5977,66.1793
1.5982,95.4780
1.5987,116.8416
1.5992,126.6078
1.5997,119.8935
1.6002,107.9909
1.6007,111.6533
1.6012,139.1208
1.6017,173.9129
1.6022,193.1402
1.6027,192.5298
1.6032,184.8999
1.6037,186.1207
1.6042,197.4129
1.6047,207.1791
1.6052,204.1272
1.6057,192.8350
1.6062,192.2246
1.6067,212.3674
1.6072,237.0882
1.6077,237.6986
1.6082,208.3999
1.6087,171.1662
1.6092,147.3610
1.6097,138.2052
1.6102,132.1013
1.6107,125.3870
1.6112,117.4520
1.6117,101.5818
1.6122,73.5040
1.6127,41.1534
1.6132,19.4846
1.6137,9.1079
1.6142,-2.1843
1.6147,-23.2427
1.6152,-46.7426
1.6157,-62.3076
1.6162,-70.2426
1.6167,-78.1777
1.6172,-89.1647
1.6177,-101.6776
1.6182,-112.3594
1.6187,-117.5477
1.6192,-111.1387
1.6197,-90.9958
1.6202,-63.2231
1.6207,-40.6387
1.6212,-30.2621
1.6217,-27.2102
1.6222,-23.8531
1.6227,-22.6323
1.6232,-30.5673
1.6237,-49.1842
1.6242,-71.7686
1.6247,-92.5218
1.6252,-109.9179
1.6257,-124.8724
1.6262,-134.6386
1.6267,-139.5217
1.6272,-143.4893
1.6277,-147.7620
1.6282,-146.5412
1.6287,-137.6906
1.6292,-129.4503
1.6297,-128.8399
1.6302,-130.0607
1.6307,-121.8205
1.6312,-107.1711
1.6317,-96.4893
1.6322,-87.6387
1.6327,-68.4114
1.6332,-42.4699
1.6337,-33.0089
1.6342,-47.6582
1.6347,-62.3076
1.6352,-54.0673
1.6357,-33.9245
1.6362,-28.1258
1.6367,-40.9439
1.6372,-51.9309
1.6377,-50.7102
1.6382,-45.8271
1.6387,-46.1322
1.6392,-49.4894
1.6397,-58.3400
1.6402,-80.0088
1.6407,-110.5283
1.6412,-131.2815
1.6417,-135.5542
1.6422,-135.5542
1.6427,-144.4048
1.6432,-157.2230
1.6437,-163.3269
1.6442,-160.2750
1.6447,-149.2880
1.6452,-128.2295
1.6457,-99.5413
1.6462,-74.8205
1.6467,-60.1712
1.6472,-47.0478
1.6477,-27.5154
1.6482,-10.7297
1.6487,-7.6778
1.6492,-11.0349
1.6497,-1.8791
1.6502,23.4521
1.6507,50.3092
1.6512,65.2637
1.6517,72.2832
1.6522,77.1663
1.6527,77.1663
1.6532,69.2312
1.6537,61.6014
1.6542,61.2962
1.6547,62.5170
1.6552,53.9715
1.6557,35.9650
1.6562,19.4846
1.6567,9.1079
1.6572,-0.0479
1.6577,-10.1193
1.6582,-14.6972
1.6587,-11.3401
1.6592,-10.4245
1.6597,-21.7167
1.6602,-35.7556
1.6607,-36.3660
1.6612,-21.4115
1.6617,-5.8466
1.6622,-2.1843
1.6627,-5.2362
1.6632,-4.3206
1.6637,3.3092
1.6642,13.3807
1.6647,21.9261
1.6652,28.6404
1.6657,32.3027
1.6662,32.3027
1.6667,26.5040
1.6672,16.4326
1.6677,3.3092
1.6682,-9.5089
1.6687,-20.4959
1.6692,-27.2102
1.6697,-29.3466
1.6702,-30.5673
1.6707,-36.0608
1.6712,-45.2167
1.6717,-48.8790
1.6722,-40.9439
1.6727,-29.9569
1.6732,-29.3466
1.6737,-39.1128
1.6742,-44.6063
1.6747,-39.1128
1.6752,-31.1777
1.6757,-30.8725
1.6762,-33.9245
1.6767,-31.7881
1.6772,-28.1258
1.6777,-30.5673
1.6782,-35.1452
1.6787,-30.2621
1.6792,-12.8661
1.6797,5.7508
1.6802,16.4326
1.6807,20.0949
1.6812,23.4521
1.6817,26.5040
1.6822,24.3677
1.6827,14.6014
1.6832,1.1729
1.6837,-10.7297
1.6842,-20.8011
1.6847,-29.3466
1.6852,-33.6193
1.6857,-30.5673
1.6862,-26.2946
1.6867,-32.7037
1.6872,-49.4894
1.6877,-59.5608
1.6882,-51.0154
1.6887,-33.9245
1.6892,-24.7686
1.6897,-25.3790
1.6902,-29.6517
1.6907,-38.5024
1.6912,-52.5413
1.6917,-57.4244
1.6922,-32.3985
1.6927,18.5690
1.6932,69.8416
1.6937,100.0559
1.6942,111.3481
1.6947,111.9585
1.6952,106.4650
1.6957,97.0039
1.6962,89.6793
1.6967,85.7117
1.6972,81.7442
1.6977,79.6078
1.6982,85.7117
1.6987,97.9195
1.6992,102.4974
1.6997,90.2897
1.7002,68.9260
1.7007,55.8027
1.7012,63.1274
1.7017,88.7637
1.7022,119.8935
1.7027,140.3415
1.7032,141.2571
1.7037,126.6078
1.7042,106.4650
1.7047,83.8806
1.7052,56.7183
1.7057,30.7767
1.7062,17.6534
1.7067,20.0949
1.7072,25.8936
1.7077,24.3677
1.7082,20.4001
1.7087,27.4196
1.7092,46.9520
1.7097,67.0949
1.7102,74.4195
1.7107,67.4001
1.7112,52.1404
1.7117,38.4066
1.7122,32.6079
1.7127,34.7443
1.7132,42.0689
1.7137,48.7832
1.7142,48.7832
1.7147,35.0495
1.7152,8.4976
1.7157,-18.0544
1.7162,-27.5154
1.7167,-18.6648
1.7172,-9.2037
1.7177,-13.1713
1.7182,-24.4634
1.7187,-29.0414
1.7192,-26.5998
1.7197,-27.8206
1.7202,-34.5349
1.7207,-37.5868
1.7212,-32.7037
1.7217,-27.5154
1.7222,-29.6517
1.7227,-33.6193
1.7232,-23.8531
1.7237,11.2443
1.7242,67.0949
1.7247,115.0104
1.7252,125.9974
1.7257,101.8870
1.7262,71.9780
1.7267,56.7183
1.7272,46.9520
1.7277,29.5560
1.7282,12.4651
1.7287,6.6664
1.7292,1.7833
1.7297,-17.1388
1.7302,-44.9115
1.7307,-66.5803
1.7312,-83.6712
1.7317,-96.4893
1.7322,-80.6192
1.7327,-15.6128
1.7332,72.5884
1.7337,134.5428
1.7342,159.8740
1.7347,182.1532
1.7352,216.0297
1.7357,237.3934
1.7362,228.5427
1.7367,208.0947
1.7372,195.2765
1.7377,180.0168
1.7382,148.5818
1.7387,115.3156
1.7392,101.2767
1.7397,100.9715
1.7402,95.7832
1.7407,82.0494
1.7412,69.5364
1.7417,63.1274
1.7422,60.0754
1.7427,59.7702
1.7432,60.6858
1.7437,56.4131
1.7442,44.8157
1.7447,33.8287
1.7452,30.1664
1.7457,28.9456
1.7462,22.5365
1.7467,10.9391
1.7472,-2.1843
1.7477,-16.2232
1.7482,-29.9569
1.7487,-43.3855
1.7492,-60.1712
1.7497,-87.3335
1.7502,-122.4308
1.7507,-155.6970
1.7512,-181.0282
1.7517,-199.0346
1.7522,-208.8009
1.7527,-206.6645
1.7532,-198.1191
1.7537,-192.9308
1.7542,-188.3528
1.7547,-172.1775
1.7552,-144.7100
1.7557,-122.4308
1.7562,-111.7490
1.7567,-95.2685
1.7572,-63.8335
1.7577,-38.8076
1.7582,-45.2167
1.7587,-71.4634
1.7592,-78.7880
1.7597,-50.0998
1.7602,-6.7622
1.7607,25.8936
1.7612,49.3936
1.7617,73.5040
1.7622,90.5948
1.7627,84.1858
1.7632,55.1923
1.7637,23.1469
1.7642,0.8677
1.7647,-14.3920
1.7652,-26.2946
1.7657,-25.9894
1.7662,-7.6778
1.7667,15.8222
1.7672,28.3352
1.7677,27.1144
1.7682,21.9261
1.7687,21.0105
1.7692,24.0625
1.7697,28.6404
1.7702,31.3871
1.7707,27.7248
1.7712,16.4326
1.7717,4.2248
1.7722,-2.4894
1.7727,-6.4570
1.7732,-10.1193
1.7737,-7.9829
1.7742,6.3612
1.7747,24.0625
1.7752,28.6404
1.7757,19.7897
1.7762,12.7703
1.7767,15.5170
1.7772,15.5170
1.7777,0.5625
1.7782,-25.6842
1.7787,-52.2361
1.7792,-75.1257
1.7797,-91.9114
1.7802,-96.7945
1.7807,-89.4699
1.7812,-81.5348
1.7817,-84.5867
1.7822,-100.4569
1.7827,-124.2620
1.7832,-150.8139
1.7837,-173.3983
1.7842,-180.1126
1.7847,-163.9373
1.7852,-130.0607
1.7857,-89.1647
1.7862,-51.3206
1.7867,-27.8206
1.7872,-27.2102
1.7877,-42.1647
1.7882,-54.6777
1.7887,-54.3725
1.7892,-47.3530
1.7897,-38.8076
1.7902,-25.0738
1.7907,-7.9829
1.7912,-0.3531
1.7917,-4.9310
1.7922,-11.3401
1.7927,-15.0024
1.7932,-30.2621
1.7937,-60.1712
1.7942,-83.0608
1.7947,-87.3335
1.7952,-90.0802
1.7957,-103.5088
1.7962,-101.0672
1.7967,-59.2556
1.7972,-10.7297
1.7977,-10.1193
1.7982,-59.8660
1.7987,-106.5607
1.7992,-116.0218
1.7997,-104.1192
1.8002,-87.0283
1.8007,-54.6777
1.8012,-2.7946
1.8017,40.2378
1.8022,53.9715
1.8027,54.5819
1.8032,64.0429
1.8037,74.7247
1.8042,70.7572
1.8047,60.3806
1.8052,60.0754
1.8057,63.7377
1.8062,53.6663
1.8067,31.3871
1.8072,11.5495
1.8077,-4.0154
1.8082,-28.1258
1.8087,-59.8660
1.8092,-82.1452
1.8097,-81.8400
1.8102,-63.2231
1.8107,-42.7751
1.8112,-33.9245
1.8117,-39.4180
1.8122,-43.9959
1.8127,-29.3466
1.8132,-2.7946
1.8137,3.6144
1.8142,-26.5998
1.8147,-67.8011
1.8152,-77.5673
1.8157,-46.7426
1.8162,-4.0154
1.8167,21.3157
1.8172,26.8092
1.8177,23.4521
1.8182,20.4001
1.8187,21.0105
1.8192,24.3677
1.8197,26.1988
1.8202,24.0625
1.8207,26.1988
1.8212,40.5430
1.8217,59.1598
1.8222,59.1598
1.8227,30.7767
1.8232,-7.3726
1.8237,-28.7362
1.8242,-24.1582
1.8247,-3.7102
1.8252,17.0430
1.8257,29.8612
1.8262,29.8612
1.8267,19.4846
1.8272,6.6664
1.8277,-5.8466
1.8282,-26.2946
1.8287,-59.2556
1.8292,-90.9958
1.8297,-100.7620
1.8302,-83.9764
1.8307,-52.8465
1.8312,-15.6128
1.8317,29.8612
1.8322,77.4715
1.8327,99.1403
1.8332,74.7247
1.8337,16.4326
1.8342,-37.5868
1.8347,-60.4764
1.8352,-52.8465
1.8357,-32.0933
1.8362,-15.6128
1.8367,-9.2037
1.8372,-6.1518
1.8377,6.0560
1.8382,31.6923
1.8387,59.4650
1.8392,82.3546
1.8397,115.3156
1.8402,181.2376
1.8407,279.2050
1.8412,376.8672
1.8417,436.9905
1.8422,447.3671
1.8427,422.3412
1.8432,381.7503
1.8437,335.0556
1.8442,281.9517
1.8447,225.1856
1.8452,176.6597
1.8457,145.8350
1.8462,125.0818
1.8467,101.5818
1.8472,80.2182
1.8477,78.6923
1.8482,96.6987
1.8487,107.6857
1.8492,91.8156
1.8497,62.5170
1.8502,41.4585
1.8507,28.0300
1.8512,9.1079
1.8517,-12.8661
1.8522,-25.0738
1.8527,-25.6842
1.8532,-24.4634
1.8537,-24.1582
1.8542,-24.1582
1.8547,-30.8725
1.8552,-49.4894
1.8557,-69.3270
1.8562,-79.3984
1.8567,-84.5867
1.8572,-90.6906
1.8577,-84.5867
1.8582,-56.8141
1.8587,-28.4310
1.8592,-25.0738
1.8597,-38.1972
1.8602,-39.7232
1.8607,-30.8725
1.8612,-37.5868
1.8617,-65.9699
1.8622,-94.6582
1.8627,-111.4439
1.8632,-123.0412
1.8637,-120.2945
1.8642,-84.5867
1.8647,-29.3466
1.8652,-3.7102
1.8657,-32.7037
1.8662,-87.9439
1.8667,-132.8075
1.8672,-166.3788
1.8677,-202.6970
1.8682,-232.9112
1.8687,-237.7943
1.8692,-216.1255
1.8697,-180.7230
1.8702,-137.3854
1.8707,-86.7231
1.8712,-37.8920
1.8717,0.2573
1.8722,27.7248
1.8727,43.5949
1.8732,41.7637
1.8737,26.5040
1.8742,18.5690
1.8747,30.4715
1.8752,46.3417
1.8757,46.3417
1.8762,34.7443
1.8767,30.1664
1.8772,33.8287
1.8777,34.1339
1.8782,27.1144
1.8787,15.5170
1.8792,-5.2362
1.8797,-38.8076
1.8802,-69.9374
1.8807,-77.5673
1.8812,-62.0024
1.8817,-44.9115
1.8822,-39.7232
1.8827,-42.4699
1.8832,-53.1517
1.8837,-79.7036
1.8842,-118.4633
1.8847,-148.3724
1.8852,-154.7815
1.8857,-145.6256
1.8862,-135.8594
1.8867,-128.5347
1.8872,-121.2101
1.8877,-117.5477
1.8882,-117.2425
1.8887,-109.3075
1.8892,-87.0283
1.8897,-59.8660
1.8902,-40.9439
1.8907,-29.3466
1.8912,-15.6128
1.8917,-0.6583
1.8922,7.5820
1.8927,9.7183
1.8932,12.1599
1.8937,18.2638
1.8942,25.2832
1.8947,31.9975
1.8952,39.9326
1.8957,48.4780
1.8962,57.0235
1.8967,68.0105
1.8972,82.9650
1.8977,95.7832
1.8982,101.5818
1.8987,105.5494
1.8992,114.4000
1.8997,124.1662
1.9002,125.3870
1.9007,121.1143
1.9012,123.5558
1.9017,132.7117
1.9022,136.0688
1.9027,128.4390
1.9032,121.4195
1.9037,122.6403
1.9042,122.6403
1.9047,105.2442
1.9052,69.2312
1.9057,26.8092
1.9062,-12.8661
1.9067,-48.5738
1.9072,-78.1777
1.9077,-101.3724
1.9082,-122.4308
1.9087,-145.0152
1.9092,-165.1581
1.9097,-173.3983
1.9102,-167.5996
1.9107,-155.3918
1.9112,-144.7100
1.9117,-135.8594
1.9122,-127.9243
1.9127,-122.1257
1.9132,-118.1581
1.9137,-109.9179
1.9142,-92.8270
1.9147,-72.9894
1.9152,-64.1387
1.9157,-69.3270
1.9162,-76.3465
1.9167,-69.9374
1.9172,-48.5738
1.9177,-20.1907
1.9182,10.9391
1.9187,44.8157
1.9192,78.6923
1.9197,105.5494
1.9202,124.7766
1.9207,143.6987
1.9212,168.1142
1.9217,196.1921
1.9222,224.5752
1.9227,249.6011
1.9232,262.4193
1.9237,252.0427
1.9242,221.5232
1.9247,187.9519
1.9252,165.0623
1.9257,149.1922
1.9262,132.4065
1.9267,119.8935
1.9272,121.4195
1.9277,131.1857
1.9282,134.8480
1.9287,130.8805
1.9292,133.3221
1.9297,151.0233
1.9302,172.0818
1.9307,176.9649
1.9312,160.1792
1.9317,133.0169
1.9322,111.3481
1.9327,100.9715
1.9332,97.6143
1.9337,93.6468
1.9342,88.1533
1.9347,86.9325
1.9352,93.3416
1.9357,104.6338
1.9362,114.0948
1.9367,118.0623
1.9372,111.6533
1.9377,92.4260
1.9382,67.7053
1.9387,53.0559
1.9392,53.9715
1.9397,56.1079
1.9402,45.1209
1.9407,24.3677
1.9412,6.3612
1.9417,-10.1193
1.9422,-36.3660
1.9427,-70.5478
1.9432,-97.7101
1.9437,-108.3919
1.9442,-110.8335
1.9447,-116.6322
1.9452,-125.4828
1.9457,-131.8919
1.9462,-138.6062
1.9467,-151.7295
1.9472,-172.4827
1.9477,-192.9308
1.9482,-203.3074
1.9487,-202.6970
1.9492,-196.8983
1.9497,-190.7944
1.9502,-182.5541
1.9507,-168.5152
1.9512,-150.8139
1.9517,-135.5542
1.9522,-120.5997
1.9527,-96.7945
1.9532,-63.2231
1.9537,-30.8725
1.9542,-8.5933
1.9547,7.5820
1.9552,26.5040
1.9557,44.8157
1.9562,55.4975
1.9567,60.0754
1.9572,65.5689
1.9577,74.1143
1.9582,82.3546
1.9587,91.8156
1.9592,107.0753
1.9597,124.1662
1.9602,134.8480
1.9607,136.6792
1.9612,137.9000
1.9617,144.6143
1.9622,155.9065
1.9627,165.6727
1.9632,167.1986
1.9637,157.1272
1.9642,136.0688
1.9647,110.4325
1.9652,86.6273
1.9657,64.6533
1.9662,39.6274
1.9667,12.1599
1.9672,-11.9505
1.9677,-31.7881
1.9682,-51.0154
1.9686,-72.0738
1.9691,-93.4374
1.9696,-113.5802
1.9701,-133.4178
1.9706,-152.6451
1.9711,-165.7685
1.9716,-171.5671
1.9721,-176.1451
1.9726,-184.6905
1.9731,-195.6775
1.9736,-202.3918
1.9741,-202.3918
1.9746,-198.4243
1.9751,-191.0996
1.9756,-181.3334
1.9761,-172.4827
1.9766,-166.6840
1.9771,-162.1061
1.9776,-153.5607
1.9781,-141.6581
1.9786,-130.6711
1.9791,-123.6516
1.9796,-119.0737
1.9801,-116.0218
1.9806,-112.3594
1.9811,-105.3400
1.9816,-94.6582
1.9821,-86.4179
1.9826,-86.1127
1.9831,-90.6906
1.9836,-92.8270
1.9841,-90.9958
1.9846,-90.9958
1.9851,-95.5737
1.9856,-100.7620
1.9861,-102.2880
1.9866,-99.2361
1.9871,-90.6906
1.9876,-77.8725
1.9881,-65.0543
1.9886,-58.9504
1.9891,-59.2556
1.9896,-59.2556
1.9901,-54.9829
1.9906,-48.5738
1.9911,-43.9959
1.9916,-41.5543
1.9921,-39.1128
1.9926,-36.3660
1.9931,-35.1452
1.9936,-34.8401
1.9941,-34.2297
1.9946,-31.7881
1.9951,-26.5998
1.9956,-20.8011
1.9961,-17.4440
1.9966,-18.6648
1.9971,-20.1907
1.9976,-18.6648
1.9981,-14.6972
1.9986,-13.1713
1.9991,-14.0868
1.9996,-13.1713
2.0001,-10.4245
2.0006,-9.2037
2.0011,-11.0349
2.0016,-12.5609
2.0021,-12.5609
2.0026,-12.2557
2.0031,-13.7816
2.0036,-15.9180
2.0041,-17.1388
2.0046,-16.5284
2.0051,-14.6972
2.0056,-12.2557
2.0061,-12.2557
2.0066,-17.4440
2.0071,-24.7686
2.0076,-28.1258
2.0081,-24.7686
2.0086,-19.2751
2.0091,-15.0024
2.0096,-11.9505
2.0101,-7.6778
2.0106,-4.6258
2.0111,-4.6258
2.0116,-5.2362
2.0121,-3.4050
2.0126,0.8677
2.0131,5.4456
2.0136,8.8027
2.0141,11.8547
2.0146,15.5170
2.0151,20.4001
2.0156,27.4196
2.0161,35.0495
2.0166,39.3222
2.0171,35.6599
2.0176,24.9780
2.0181,13.3807
2.0186,6.6664
2.0191,4.8352
2.0196,6.0560
2.0201,11.8547
2.0206,24.3677
2.0211,39.6274
2.0216,47.8676
2.0221,44.5105
2.0226,36.5754
2.0231,33.8287
2.0236,39.3222
2.0241,50.3092
2.0246,64.0429
2.0251,79.6078
2.0256,91.8156
2.0261,96.0883
2.0266,95.4780
2.0271,98.2247
2.0276,105.5494
2.0281,110.7377
2.0286,108.9065
2.0291,103.4130
2.0296,100.6663
2.0301,102.4974
2.0306,107.9909
2.0311,114.0948
2.0316,118.0623
2.0321,118.9779
2.0326,119.2831
2.0331,123.5558
2.0336,132.1013
2.0341,141.2571
2.0346,147.6662
2.0351,149.1922
2.0356,143.3935
2.0361,128.7441
2.0366,111.3481
2.0371,98.2247
2.0376,88.1533
2.0381,73.5040
2.0386,50.3092
2.0391,26.5040
2.0396,13.3807
2.0401,14.2962
2.0406,22.5365
2.0411,29.5560
2.0416,30.4715
2.0421,29.5560
2.0426,33.8287
2.0431,45.4261
2.0436,58.8546
2.0441,67.4001
2.0446,70.4520
2.0451,73.8092
2.0456,80.5234
2.0461,90.2897
2.0466,100.6663
2.0471,108.6013
2.0476,111.6533
2.0481,109.2117
2.0486,105.2442
2.0491,103.7182
2.0496,104.3286
2.0501,104.0234
2.0506,103.1078
2.0511,103.4130
2.0516,105.2442
2.0521,107.0753
2.0526,107.6857
2.0531,107.3805
2.0536,104.3286
2.0541,96.3935
2.0546,86.3221
2.0551,77.4715
2.0556,68.9260
2.0561,55.8027
2.0566,38.4066
2.0571,23.4521
2.0576,14.9066
2.0581,9.1079
2.0586,1.7833
2.0591,-4.3206
2.0596,-6.1518
2.0601,-6.4570
2.0606,-12.2557
2.0611,-25.6842
2.0616,-39.7232
2.0621,-47.6582
2.0626,-50.0998
2.0631,-50.7102
2.0636,-49.4894
2.0641,-45.5219
2.0646,-39.1128
2.0651,-32.7037
2.0656,-27.8206
2.0661,-22.9375
2.0666,-17.4440
2.0671,-13.7816
2.0676,-15.3076
2.0681,-21.7167
2.0686,-27.5154
2.0691,-26.9050
2.0696,-19.2751
2.0701,-8.2881
2.0706,1.1729
2.0711,8.8027
2.0716,16.7378
2.0721,25.8936
2.0726,34.7443
2.0731,40.8482
2.0736,41.1534
2.0741,36.2702
2.0746,31.3871
2.0751,31.9975
2.0756,38.4066
2.0761,43.9001
2.0766,42.9845
2.0771,35.9650
2.0776,28.0300
2.0781,22.5365
2.0786,17.9586
2.0791,11.5495
2.0796,4.5300
2.0801,-0.3531
2.0806,-5.5414
2.0811,-14.6972
2.0816,-28.1258
2.0821,-40.3336
2.0826,-47.9634
2.0831,-53.1517
2.0836,-60.1712
2.0841,-69.6322
2.0846,-79.3984
2.0851,-87.3335
2.0856,-93.1322
2.0861,-96.7945
2.0866,-98.3205
2.0871,-100.1517
2.0876,-104.7296
2.0881,-110.2231
2.0886,-111.1387
2.0891,-107.7815
2.0896,-104.7296
2.0901,-106.2555
2.0906,-109.6127
2.0911,-111.7490
2.0916,-114.8010
2.0921,-123.6516
2.0926,-137.0802
2.0931,-147.4568
2.0936,-151.7295
2.0941,-153.8659
2.0946,-156.6126
2.0951,-156.0022
2.0956,-146.2360
2.0961,-130.6711
2.0966,-118.1581
2.0971,-114.8010
2.0976,-116.3270
2.0981,-117.5477
2.0986,-116.3270
2.0991,-113.5802
2.0996,-108.6971
2.1001,-99.8465
2.1006,-85.1971
2.1011,-67.1907
2.1016,-50.7102
2.1021,-42.1647
2.1026,-42.7751
2.1031,-47.0478
2.1036,-48.5738
2.1041,-46.7426
2.1046,-43.0803
2.1051,-34.8401
2.1056,-18.6648
2.1061,-0.3531
2.1066,8.8027
2.1071,4.8352
2.1076,-3.4050
2.1081,-8.5933
2.1086,-10.4245
2.1091,-14.0868
2.1096,-20.1907
2.1101,-25.0738
2.1106,-25.6842
2.1111,-22.9375
2.1116,-18.6648
2.1121,-14.3920
2.1126,-8.8985
2.1131,3.0041
2.1136,23.4521
2.1141,44.8157
2.1146,56.1079
2.1151,56.4131
2.1156,56.7183
2.1161,66.4845
2.1166,84.4910
2.1171,104.3286
2.1176,122.3351
2.1181,136.9844
2.1186,146.1402
2.1191,146.7506
2.1196,141.2571
2.1201,133.9325
2.1206,128.1338
2.1211,123.8610
2.1216,118.3675
2.1221,107.0753
2.1226,88.7637
2.1231,68.6209
2.1236,55.1923
2.1241,50.6144
2.1246,50.3092
2.1251,46.9520
2.1256,36.8806
2.1261,20.7053
2.1266,3.9196
2.1271,-5.8466
2.1276,-7.0674
2.1281,-4.9310
2.1286,-5.8466
2.1291,-8.2881
2.1296,-6.4570
2.1301,-2.7946
2.1306,-5.2362
2.1311,-14.6972
2.1316,-19.5803
2.1321,-8.8985
2.1326,13.0755
2.1331,31.6923
2.1336,38.1014
2.1341,35.3547
2.1346,31.6923
2.1351,29.8612
2.1356,29.2508
2.1361,28.0300
2.1366,24.6729
2.1371,18.8742
2.1376,13.6859
2.1381,10.6339
2.1386,7.2768
2.1391,-2.1843
2.1396,-17.7492
2.1401,-33.3141
2.1406,-43.6907
2.1411,-50.7102
2.1416,-56.8141
2.1421,-59.2556
2.1426,-57.1192
2.1431,-56.8141
2.1436,-65.3595
2.1441,-81.5348
2.1446,-97.7101
2.1451,-110.5283
2.1456,-121.8205
2.1461,-128.5347
2.1466,-122.7360
2.1471,-101.6776
2.1476,-73.5997
2.1481,-48.5738
2.1486,-32.7037
2.1491,-25.9894
2.1496,-25.3790
2.1501,-24.7686
2.1506,-17.1388
2.1511,-5.5414
2.1516,1.1729
2.1521,-1.5739
2.1526,-8.8985
2.1531,-12.2557
2.1536,-9.8141
2.1541,-3.7102
2.1546,3.0041
2.1551,7.5820
2.1556,7.5820
2.1561,5.4456
2.1566,5.7508
2.1571,9.7183
2.1576,13.3807
2.1581,15.2118
2.1586,18.8742
2.1591,26.5040
2.1596,33.5235
2.1601,35.9650
2.1606,35.3547
2.1611,33.8287
2.1616,30.4715
2.1621,22.8417
2.1626,11.5495
2.1631,-0.3531
2.1636,-11.3401
2.1641,-22.9375
2.1646,-38.1972
2.1651,-58.6452
2.1656,-81.5348
2.1661,-98.6257
2.1666,-103.8140
2.1671,-100.7620
2.1676,-95.8789
2.1681,-90.3854
2.1686,-81.5348
2.1691,-71.4634
2.1696,-63.8335
2.1701,-58.9504
2.1706,-51.0154
2.1711,-38.8076
2.1716,-25.6842
2.1721,-12.2557
2.1726,5.1404
2.1731,31.3871
2.1736,62.2118
2.1741,89.6793
2.1746,108.2961
2.1751,119.8935
2.1756,131.7961
2.1761,149.4974
2.1766,169.3350
2.1771,180.0168
2.1776,176.6597
2.1781,166.2831
2.1786,156.8220
2.1791,145.8350
2.1796,126.9130
2.1801,99.1403
2.1806,68.6209
2.1811,41.7637
2.1816,20.7053
2.1821,4.8352
2.1826,-9.8141
2.1831,-25.9894
2.1836,-40.3336
2.1841,-47.0478
2.1846,-47.0478
2.1851,-49.7946
2.1856,-56.2037
2.1861,-56.2037
2.1866,-44.6063
2.1871,-29.9569
2.1876,-19.2751
2.1881,-9.8141
2.1886,1.4781
2.1891,6.3612
2.1896,-0.9635
2.1901,-10.1193
2.1906,-5.5414
2.1911,9.1079
2.1916,19.7897
2.1921,24.0625
2.1926,32.3027
2.1931,45.4261
2.1936,49.6988
2.1941,37.7962
2.1946,21.3157
2.1951,13.6859
2.1956,14.6014
2.1961,14.6014
2.1966,8.8027
2.1971,-0.0479
2.1976,-7.0674
2.1981,-10.7297
2.1986,-11.0349
2.1991,-8.8985
2.1996,-6.4570
2.2001,-5.2362
2.2006,-7.6778
2.2011,-15.0024
2.2016,-25.6842
2.2021,-36.6712
2.2026,-43.9959
2.2031,-47.6582
2.2036,-50.0998
2.2041,-52.2361
2.2046,-52.5413
2.2051,-50.4050
2.2056,-47.9634
2.2061,-48.2686
2.2066,-52.5413
2.2071,-57.4244
2.2076,-60.1712
2.2081,-61.6972
2.2086,-62.6127
2.2091,-60.7816
2.2096,-53.1517
2.2101,-43.3855
2.2106,-38.5024
2.2111,-38.5024
2.2116,-38.1972
2.2121,-37.2816
2.2126,-42.4699
2.2131,-53.1517
2.2136,-56.5089
2.2141,-46.4374
2.2146,-32.7037
2.2151,-28.7362
2.2156,-30.8725
2.2161,-26.2946
2.2166,-10.7297
2.2171,8.8027
2.2176,26.1988
2.2181,37.4910
2.2186,40.8482
2.2191,39.0170
2.2196,42.3741
2.2201,57.3287
2.2206,76.2507
2.2211,84.1858
2.2216,75.6403
2.2221,57.0235
2.2226,35.9650
2.2231,17.6534
2.2236,6.9716
2.2241,6.3612
2.2246,8.8027
2.2251,6.0560
2.2256,-0.0479
2.2261,-0.9635
2.2266,-0.0479
2.2271,-4.9310
2.2276,-15.6128
2.2281,-20.8011
2.2286,-18.3596
2.2291,-19.5803
2.2296,-30.2621
2.2301,-38.1972
2.2306,-31.4829
2.2311,-15.0024
2.2316,-2.1843
2.2321,3.9196
2.2326,10.9391
2.2331,25.2832
2.2336,45.7313
2.2341,68.3157
2.2346,89.0689
2.2351,104.6338
2.2356,115.6208
2.2361,127.8286
2.2366,144.3091
2.2371,160.1792
2.2376,167.1986
2.2381,163.2311
2.2386,154.0753
2.2391,148.2766
2.2396,147.9714
2.2401,145.8350
2.2406,134.2376
2.2411,112.8740
2.2416,90.2897
2.2421,71.3676
2.2426,51.8352
2.2431,28.3352
2.2436,6.0560
2.2441,-8.8985
2.2446,-18.6648
2.2451,-30.2621
2.2456,-44.3011
2.2461,-60.1712
2.2466,-80.3140
2.2471,-105.3400
2.2476,-125.1776
2.2481,-131.8919
2.2486,-131.2815
2.2491,-132.1971
2.2496,-126.3984
2.2501,-101.3724
2.2506,-66.8855
2.2511,-46.7426
2.2516,-45.5219
2.2521,-42.7751
2.2526,-24.4634
2.2531,-0.6583
2.2536,14.2962
2.2541,25.2832
2.2546,38.4066
2.2551,47.2572
2.2556,42.9845
2.2561,30.1664
2.2566,17.9586
2.2571,4.5300
2.2576,-17.1388
2.2581,-45.2167
2.2586,-68.7166
2.2591,-83.3660
2.2596,-89.4699
2.2601,-88.5543
2.2606,-84.2815
2.2611,-86.1127
2.2616,-98.3205
2.2621,-111.7490
2.2626,-112.6646
2.2631,-100.4569
2.2636,-83.0608
2.2641,-65.6647
2.2646,-48.5738
2.2651,-38.1972
2.2656,-39.1128
2.2661,-42.1647
2.2666,-29.9569
2.2671,-0.3531
2.2676,29.8612
2.2681,48.4780
2.2686,61.2962
2.2691,79.3027
2.2696,100.6663
2.2701,115.9260
2.2706,119.8935
2.2711,114.4000
2.2716,100.0559
2.2721,79.6078
2.2726,61.6014
2.2731,53.0559
2.2736,50.3092
2.2741,45.4261
2.2746,38.7118
2.2751,35.6599
2.2756,35.6599
2.2761,32.6079
2.2766,26.8092
2.2771,22.2313
2.2776,18.8742
2.2781,9.7183
2.2786,-7.3726
2.2791,-25.0738
2.2796,-34.5349
2.2801,-36.3660
2.2806,-34.8401
2.2811,-31.1777
2.2816,-26.2946
2.2821,-23.2427
2.2826,-22.6323
2.2831,-21.1063
2.2836,-15.9180
2.2841,-9.5089
2.2846,-6.1518
2.2851,-5.2362
2.2856,-4.6258
2.2861,-3.7102
2.2866,-1.8791
2.2871,2.0885
2.2876,7.8872
2.2881,10.6339
2.2886,6.0560
2.2891,-3.4050
2.2896,-11.6453
2.2901,-14.3920
2.2906,-12.5609
2.2911,-8.8985
2.2916,-5.8466
2.2921,-6.4570
2.2926,-10.4245
2.2931,-15.9180
2.2936,-21.1063
2.2941,-25.3790
2.2946,-26.9050
2.2951,-23.5479
2.2956,-16.5284
2.2961,-11.6453
2.2966,-13.4764
2.2971,-19.5803
2.2976,-23.2427
2.2981,-20.8011
2.2986,-14.0868
2.2991,-7.3726
2.2996,-3.0998
2.3001,-2.7946
2.3006,-6.7622
2.3011,-12.2557
2.3016,-15.3076
2.3021,-14.6972
2.3026,-14.0868
2.3031,-18.3596
2.3036,-25.9894
2.3041,-32.3985
2.3046,-34.8401
2.3051,-32.0933
2.3056,-23.5479
2.3061,-11.3401
2.3066,-3.4050
2.3071,-5.5414
2.3076,-15.6128
2.3081,-26.9050
2.3086,-33.0089
2.3091,-31.1777
2.3096,-21.1063
2.3101,-6.1518
2.3106,3.6144
2.3111,3.6144
2.3116,-0.6583
2.3121,-0.9635
2.3126,3.9196
2.3131,10.0235
2.3136,17.6534
2.3141,29.8612
2.3146,41.4585
2.3151,45.4261
2.3156,44.2053
2.3161,45.4261
2.3166,46.9520
2.3171,40.5430
2.3176,28.3352
2.3181,22.5365
2.3186,25.8936
2.3191,26.5040
2.3196,18.5690
2.3201,11.8547
2.3206,14.6014
2.3211,20.4001
2.3216,21.0105
2.3221,20.7053
2.3226,25.2832
2.3231,31.6923
2.3236,34.1339
2.3241,35.0495
2.3246,37.4910
2.3251,38.7118
2.3256,34.7443
2.3261,29.5560
2.3266,26.8092
2.3271,23.1469
2.3276,14.6014
2.3281,6.0560
2.3286,5.1404
2.3291,8.1924
2.3296,6.3612
2.3301,-1.2687
2.3306,-10.1193
2.3311,-16.8336
2.3316,-22.3271
2.3321,-25.0738
2.3326,-23.2427
2.3331,-20.1907
2.3336,-22.0219
2.3341,-29.0414
2.3346,-34.5349
2.3351,-33.9245
2.3356,-30.2621
2.3361,-27.5154
2.3366,-25.3790
2.3371,-21.7167
2.3376,-16.8336
2.3381,-12.2557
2.3386,-9.2037
2.3391,-7.9829
2.3396,-6.1518
2.3401,-2.4894
2.3406,1.7833
2.3411,4.8352
2.3416,5.7508
2.3421,6.6664
2.3426,8.1924
2.3431,6.3612
2.3436,-1.2687
2.3441,-13.4764
2.3446,-25.3790
2.3451,-34.5349
2.3456,-44.3011
2.3461,-56.5089
2.3466,-66.5803
2.3471,-64.4439
2.3476,-46.1322
2.3481,-18.3596
2.3486,8.8027
2.3491,29.8612
2.3496,43.5949
2.3501,50.9196
2.3506,52.4455
2.3511,53.9715
2.3516,59.1598
2.3521,61.6014
2.3526,51.5300
2.3531,29.5560
2.3536,7.2768
2.3541,-5.5414
2.3546,-12.2557
2.3551,-17.1388
2.3556,-21.7167
2.3561,-27.5154
2.3566,-39.7232
2.3571,-54.6777
2.3576,-59.8660
2.3581,-51.3206
2.3586,-40.9439
2.3591,-40.0284
2.3596,-43.6907
2.3601,-44.9115
2.3606,-45.5219
2.3611,-48.2686
2.3616,-43.9959
2.3621,-24.1582
2.3626,1.7833
2.3631,18.2638
2.3636,21.6209
2.3641,20.7053
2.3646,20.4001
2.3651,21.9261
2.3656,28.6404
2.3661,42.3741
2.3666,53.0559
2.3671,47.2572
2.3676,25.5884
2.3681,2.0885
2.3686,-13.4764
2.3691,-24.4634
2.3696,-39.7232
2.3701,-68.4114
2.3706,-112.9698
2.3711,-162.4113
2.3716,-194.7619
2.3721,-198.4243
2.3726,-183.1645
2.3731,-169.1256
2.3736,-159.6646
2.3741,-142.2685
2.3746,-105.6452
2.3751,-54.0673
2.3756,-3.7102
2.3761,33.8287
2.3766,60.0754
2.3771,78.3871
2.3776,84.4910
2.3781,69.8416
2.3786,38.7118
2.3791,14.2962
2.3796,14.6014
2.3801,31.3871
2.3806,43.5949
2.3811,39.6274
2.3816,18.5690
2.3821,-16.5284
2.3826,-54.6777
2.3831,-75.4309
2.3836,-76.6517
2.3841,-86.7231
2.3846,-132.1971
2.3851,-199.9502
2.3856,-258.2424
2.3861,-300.6644
2.3866,-342.4760
2.3871,-386.4240
2.3876,-419.6902
2.3881,-439.2226
2.3886,-452.9564
2.3891,-458.4499
2.3896,-455.3979
2.3901,-469.1317
2.3906,-524.9823
2.3911,-602.5017
2.3916,-647.9756
2.3921,-640.3458
2.3926,-605.5536
2.3931,-557.6381
2.3936,-463.9434
2.3941,-293.0345
2.3946,-65.3595
2.3951,165.3675
2.3956,372.5945
2.3961,568.8345
2.3966,765.6849
2.3971,939.0353
2.3976,1040.6650
2.3981,1048.6001
2.3986,1000.9898
2.3991,965.5872
2.3996,967.1132
2.4001,961.0093
2.4006,892.9509
2.4011,773.3147
2.4016,663.7499
2.4021,601.1851
2.4026,566.3929
2.4031,534.0423
2.4036,513.5943
2.4041,523.3605
2.4046,545.9449
2.4051,544.1137
2.4056,511.4579
2.4061,480.9385
2.4066,482.4645
2.4071,510.5424
2.4076,539.5358
2.4081,555.7111
2.4086,560.8994
2.4091,546.8605
2.4096,493.1463
2.4101,391.8217
2.4106,278.2894
2.4111,212.6726
2.4116,218.4713
2.4121,248.6856
2.4126,229.7635
2.4131,140.6467
2.4136,27.4196
2.4141,-69.3270
2.4146,-173.3983
2.4151,-322.6384
2.4156,-493.8524
2.4161,-624.1705
2.4166,-692.5340
2.4171,-733.4301
2.4176,-764.2547
2.4181,-756.3196
2.4186,-701.6898
2.4191,-641.2613
2.4196,-598.5341
2.4201,-534.7485
2.4206,-413.2811
2.4211,-272.5865
2.4216,-177.0606
2.4221,-134.3334
2.4226,-107.4763
2.4231,-72.6842
2.4236,-18.3596
2.4241,85.7117
2.4246,247.7700
2.4251,405.8607
2.4256,480.0229
2.4261,467.2047
2.4266,425.3931
2.4271,386.0230
2.4276,338.4127
2.4281,292.0232
2.4286,272.4907
2.4291,259.9777
2.4296,198.9389
2.4301,86.3221
2.4306,-17.7492
2.4311,-81.2296
2.4316,-138.6062
2.4321,-220.0931
2.4326,-298.8332
2.4331,-339.7293
2.4336,-354.3786
2.4341,-363.8396
2.4346,-349.1903
2.4351,-275.9436
2.4356,-146.8464
2.4361,1.7833
2.4366,130.8805
2.4371,203.5168
2.4376,196.4973
2.4381,134.5428
2.4386,86.0169
2.4391,88.4585
2.4396,98.8351
2.4401,51.5300
2.4406,-51.9309
2.4411,-152.3399
2.4416,-214.5996
2.4421,-259.1579
2.4426,-305.8527
2.4431,-340.0345
2.4436,-352.2422
2.4441,-374.8266
2.4446,-434.0343
2.4451,-491.1057
2.4456,-480.1187
2.4461,-404.4305
2.4466,-344.6124
2.4471,-351.3267
2.4476,-371.1643
2.4481,-321.4176
2.4486,-206.0541
2.4491,-101.6776
2.4496,-43.3855
2.4501,9.4131
2.4506,87.8481
2.4511,151.6337
2.4516,152.8545
2.4521,108.2961
2.4526,70.4520
2.4531,51.8352
2.4536,32.3027
2.4541,6.9716
2.4546,-18.0544
2.4551,-67.8011
2.4556,-175.2295
2.4561,-324.4695
2.4566,-454.7876
2.4571,-526.2031
2.4576,-551.8394
2.4581,-560.3848
2.4586,-566.1835
2.4591,-573.5082
2.4596,-580.5277
2.4601,-571.0666
2.4606,-534.1381
2.4611,-491.4109
2.4616,-470.9629
2.4621,-458.7551
2.4626,-414.5019
2.4631,-336.9825
2.4636,-270.7553
2.4641,-236.8788
2.4646,-205.7489
2.4651,-156.9178
2.4656,-126.3984
2.4661,-154.7815
2.4666,-223.4502
2.4671,-270.7553
2.4676,-262.8203
2.4681,-213.0736
2.4686,-151.1191
2.4691,-96.1841
2.4696,-57.4244
2.4701,-34.5349
2.4706,-18.3596
2.4711,-3.4050
2.4716,6.0560
2.4721,7.8872
2.4726,7.8872
2.4731,9.4131
2.4736,4.8352
2.4741,-7.6778
2.4746,-10.4245
2.4751,22.5365
2.4756,97.6143
2.4761,192.5298
2.4766,269.4388
2.4771,297.2115
2.4776,277.9842
2.4781,252.3479
2.4786,262.7245
2.4791,295.9907
2.4796,286.8349
2.4801,191.9194
2.4806,47.8676
2.4811,-66.8855
2.4816,-112.3594
2.4821,-107.1711
2.4826,-79.3984
2.4831,-40.9439
2.4836,-3.0998
2.4841,13.3807
2.4846,6.0560
2.4851,-0.9635
2.4856,4.2248
2.4861,7.8872
2.4866,13.0755
2.4871,67.7053
2.4876,205.0428
2.4881,375.0360
2.4886,484.2956
2.4891,507.7956
2.4896,500.7761
2.4901,504.7437
2.4906,492.8411
2.4911,440.0424
2.4916,381.4451
2.4921,361.6075
2.4926,363.4386
2.4931,343.9062
2.4936,309.1140
2.4941,300.5686
2.4946,321.3218
2.4951,339.3283
2.4956,350.0101
2.4961,377.1724
2.4966,412.5749
2.4971,408.3022
2.4976,337.8023
2.4981,223.6596
2.4986,93.3416
2.4991,-39.1128
2.4996,-150.5087
2.5001,-213.6840
2.5006,-244.5086
2.5011,-290.2878
2.5016,-361.0929
2.5021,-418.7746
2.5026,-445.9369
2.5031,-471.5733
2.5036,-506.9758
2.5041,-511.2485
2.5046,-458.4499
2.5051,-378.7942
2.5056,-303.1059
2.5061,-221.3138
2.5066,-128.5347
2.5071,-63.2231
2.5076,-41.5543
2.5081,-3.4050
2.5086,115.9260
2.5091,290.1920
2.5096,434.8541
2.5101,503.8281
2.5106,505.3540
2.5111,458.6593
2.5116,393.3477
2.5121,368.9321
2.5126,421.7308
2.5131,502.6073
2.5136,529.1592
2.5141,494.0619
2.5146,468.1203
2.5151,491.6203
2.5156,529.7696
2.5161,534.6527
2.5166,500.1657
2.5171,435.4645
2.5176,342.6854
2.5181,239.8349
2.5186,168.7246
2.5191,147.6662
2.5196,146.7506
2.5201,134.2376
2.5206,119.8935
2.5211,128.4390
2.5216,148.8870
2.5221,147.0558
2.5226,109.2117
2.5231,51.5300
2.5236,-4.0154
2.5241,-40.0284
2.5246,-40.3336
2.5251,-4.0154
2.5256,46.9520
2.5261,95.7832
2.5266,152.8545
2.5271,229.7635
2.5276,298.1270
2.5281,317.3543
2.5286,297.2115
2.5291,289.5816
2.5296,308.8088
2.5301,312.1660
2.5306,278.5946
2.5310,254.4842
2.5315,284.3933
2.5320,335.9712
2.5325,343.9062
2.5330,298.1270
2.5335,237.6986
2.5340,183.3739
2.5345,124.4714
2.5350,64.6533
2.5355,25.2832
2.5360,3.9196
2.5365,-24.1582
2.5370,-64.1387
2.5375,-98.3205
2.5380,-126.3984
2.5385,-166.9892
2.5390,-218.2619
2.5395,-254.2748
2.5400,-266.1774
2.5405,-272.8917
2.5410,-289.6774
2.5415,-310.4306
2.5420,-327.5215
2.5425,-342.7812
2.5430,-362.0085
2.5435,-394.9695
2.5440,-451.7356
2.5445,-517.0472
2.5450,-541.7680
2.5455,-495.3784
2.5460,-407.4824
2.5465,-338.8137
2.5470,-321.4176
2.5475,-351.6318
2.5480,-415.4175
2.5485,-485.6122
2.5490,-524.6771
2.5495,-530.7810
2.5500,-553.0602
2.5505,-619.2873
2.5510,-681.8522
2.5515,-691.3132
2.5520,-684.5989
2.5525,-730.3781
2.5530,-810.9494
2.5535,-843.3000
2.5540,-806.0663
2.5545,-761.8131
2.5550,-749.9106
2.5555,-734.9560
2.5560,-689.4821
2.5565,-646.7548
2.5570,-633.3263
2.5575,-605.2484
2.5580,-489.5797
2.5585,-258.8527
2.5590,58.8546
2.5595,410.1334
2.5600,734.8602
2.5605,994.2755
2.5610,1191.4311
2.5615,1343.7231
2.5620,1438.3334
2.5625,1444.1320
2.5630,1363.5607
2.5635,1234.4635
2.5640,1078.5091
2.5645,898.1393
2.5650,723.8732
2.5655,607.8994
2.5660,557.8475
2.5665,523.9709
2.5670,469.3411
2.5675,411.6594
2.5680,371.0685
2.5685,332.3088
2.5690,277.3738
2.5695,221.2181
2.5700,180.0168
2.5705,138.5104
2.5710,79.9130
2.5715,19.1794
2.5720,-20.1907
2.5725,-41.5543
2.5730,-64.1387
2.5735,-95.2685
2.5740,-135.5542
2.5745,-188.3528
2.5750,-246.9502
2.5755,-289.0670
2.5760,-302.8007
2.5765,-307.9890
2.5770,-328.7423
2.5775,-361.7033
2.5780,-389.1708
2.5785,-405.9565
2.5790,-415.1123
2.5795,-415.4175
2.5800,-405.9565
2.5805,-396.8006
2.5810,-396.4954
2.5815,-393.7487
2.5820,-375.1318
2.5825,-344.9176
2.5830,-319.8916
2.5835,-309.8202
2.5840,-314.0929
2.5845,-330.2682
2.5850,-349.1903
2.5855,-352.2422
2.5860,-330.2682
2.5865,-294.8657
2.5870,-264.9566
2.5875,-247.2554
2.5880,-239.3203
2.5885,-232.3008
2.5890,-202.0866
2.5895,-123.3464
2.5900,-9.2037
2.5905,83.2702
2.5910,113.7896
2.5915,104.0234
2.5920,95.7832
2.5925,84.4910
2.5930,34.4391
2.5935,-49.1842
2.5940,-117.5477
2.5945,-147.7620
2.5950,-172.7879
2.5955,-223.1450
2.5960,-282.3527
2.5965,-324.7747
2.5970,-360.7877
2.5975,-408.7032
2.5980,-439.5278
2.5985,-401.0733
2.5990,-289.0670
2.5995,-162.1061
2.6000,-71.7686
2.6005,-6.7622
2.6010,83.2702
2.6015,227.9323
2.6020,410.7438
2.6025,597.8280
2.6030,756.2239
2.6035,854.8016
2.6040,866.7042
2.6045,793.4576
2.6050,677.7889
2.6055,574.3280
2.6060,504.4385
2.6065,452.5554
2.6070,404.6399
2.6075,368.6270
2.6080,345.4322
2.6085,311.5556
2.6090,250.8219
2.6095,187.9519
2.6100,154.6857
2.6105,139.1208
2.6110,98.8351
2.6115,26.5040
2.6120,-41.2491
2.6125,-81.2296
2.6130,-108.6971
2.6135,-139.8269
2.6140,-163.0217
2.6145,-167.2944
2.6150,-165.4633
2.6155,-164.5477
2.6160,-146.2360
2.6165,-102.2880
2.6170,-66.5803
2.6175,-76.9569
2.6180,-121.8205
2.6185,-158.7490
2.6190,-168.2100
2.6195,-161.8009
2.6200,-150.2035
2.6205,-133.7230
2.6210,-124.8724
2.6215,-144.0997
2.6220,-192.3204
2.6225,-237.7943
2.6230,-242.0671
2.6235,-192.0152
2.6240,-115.1062
2.6245,-61.6972
2.6250,-58.9504
2.6255,-77.5673
2.6260,-61.3920
2.6265,3.0041
2.6270,73.8092
2.6275,108.6013
2.6280,106.4650
2.6285,79.3027
2.6290,26.5040
2.6295,-38.1972
2.6300,-72.9894
2.6305,-56.5089
2.6310,-27.5154
2.6315,-26.5998
2.6320,-27.8206
2.6325,28.0300
2.6330,146.1402
2.6335,273.7115
2.6340,376.8672
2.6345,461.4061
2.6350,513.2891
2.6355,485.8216
2.6360,371.0685
2.6365,237.0882
2.6370,155.9065
2.6375,130.8805
2.6380,121.1143
2.6385,108.9065
2.6390,100.6663
2.6395,87.8481
2.6400,51.8352
2.6405,3.3092
2.6410,-25.3790
2.6415,-27.8206
2.6420,-30.8725
2.6425,-51.0154
2.6430,-76.3465
2.6435,-98.3205
2.6440,-130.3659
2.6445,-179.8074
2.6450,-222.2294
2.6455,-232.6060
2.6460,-221.9242
2.6465,-218.5671
2.6470,-226.5021
2.6475,-227.7229
2.6480,-214.9048
2.6485,-201.1710
2.6490,-196.5931
2.6495,-198.1191
2.6500,-206.9697
2.6505,-230.7749
2.6510,-265.2618
2.6515,-290.5930
2.6520,-296.6969
2.6525,-295.1709
2.6530,-297.9176
2.6535,-295.4761
2.6540,-271.9761
2.6545,-222.2294
2.6550,-153.2555
2.6555,-78.1777
2.6560,-19.2751
2.6565,0.8677
2.6570,-7.6778
2.6575,-4.6258
2.6580,39.9326
2.6585,108.9065
2.6590,165.3675
2.6595,199.8544
2.6600,229.1531
2.6605,257.2310
2.6610,271.2699
2.6615,265.7764
2.6620,249.2959
2.6625,227.0167
2.6630,197.4129
2.6635,163.5363
2.6640,131.1857
2.6645,97.6143
2.6650,62.8222
2.6655,44.5105
2.6660,54.2767
2.6665,66.1793
2.6670,42.0689
2.6675,-11.3401
2.6680,-50.0998
2.6685,-56.8141
2.6690,-65.0543
2.6695,-100.4569
2.6700,-142.5737
2.6705,-162.7165
2.6710,-169.1256
2.6715,-181.6386
2.6720,-192.3204
2.6725,-179.1970
2.6730,-148.0672
2.6735,-122.7360
2.6740,-103.5088
2.6745,-65.3595
2.6750,2.3937
2.6755,81.4390
2.6760,147.0558
2.6765,190.0882
2.6770,218.1661
2.6775,244.1076
2.6780,277.9842
2.6785,317.6595
2.6790,342.3802
2.6795,327.1205
2.6800,263.9453
2.6805,172.3869
2.6810,92.4260
2.6815,58.5494
2.6820,73.8092
2.6825,105.5494
2.6830,122.3351
2.6835,123.8610
2.6840,124.1662
2.6845,109.8221
2.6850,51.5300
2.6855,-52.8465
2.6860,-172.7879
2.6865,-288.1514
2.6870,-400.7681
2.6875,-497.8200
2.6880,-546.0407
2.6885,-538.1056
2.6890,-514.6057
2.6895,-511.8589
2.6900,-513.3849
2.6905,-485.0018
2.6910,-425.1837
2.6915,-359.8721
2.6920,-293.9501
2.6925,-199.9502
2.6930,-54.3725
2.6935,129.3545
2.6940,295.9907
2.6945,381.4451
2.6950,375.0360
2.6955,350.9257
2.6960,400.6724
2.6965,530.0748
2.6970,654.5941
2.6975,711.0551
2.6980,729.9771
2.6985,767.2108
2.6990,813.9056
2.6995,817.2627
2.7000,767.2108
2.7005,705.5616
2.7010,668.0227
2.7015,656.4253
2.7020,664.6655
2.7025,689.3863
2.7030,710.7499
2.7035,698.2369
2.7040,639.9448
2.7045,551.1332
2.7050,448.2827
2.7055,336.8867
2.7060,225.7960
2.7065,128.1338
2.7070,46.6469
2.7075,-28.7362
2.7080,-101.9828
2.7085,-164.2425
2.7090,-211.2424
2.7095,-252.1385
2.7100,-292.1189
2.7105,-325.6903
2.7110,-347.0539
2.7115,-359.8721
2.7120,-369.6383
2.7125,-378.1838
2.7130,-386.1188
2.7135,-395.8850
2.7140,-405.3461
2.7145,-408.3980
2.7150,-405.3461
2.7155,-405.3461
2.7160,-412.6707
2.7165,-421.5214
2.7170,-424.8785
2.7175,-424.2681
2.7180,-424.5733
2.7185,-423.6577
2.7190,-416.6383
2.7195,-404.7357
2.7200,-393.1383
2.7205,-379.7097
2.7210,-358.9565
2.7215,-334.2358
2.7220,-316.5345
2.7225,-309.8202
2.7230,-306.1579
2.7235,-300.0540
2.7240,-298.2228
2.7245,-307.6839
2.7250,-321.1124
2.7255,-324.1644
2.7260,-310.1254
2.7265,-281.4371
2.7270,-242.0671
2.7275,-196.2879
2.7280,-149.2880
2.7285,-103.2036
2.7290,-56.2037
2.7295,-11.9505
2.7300,20.0949
2.7305,29.2508
2.7310,14.6014
2.7315,-12.5609
2.7320,-34.5349
2.7325,-35.7556
2.7330,-19.8855
2.7335,-7.9829
2.7340,-15.6128
2.7345,-31.1777
2.7350,-31.7881
2.7355,-16.8336
2.7360,-5.5414
2.7365,-7.6778
2.7370,-15.3076
2.7375,-22.3271
2.7380,-31.7881
2.7385,-37.2816
2.7390,-25.6842
2.7395,-2.4894
2.7400,9.7183
2.7405,4.2248
2.7410,-1.2687
2.7415,2.0885
2.7420,3.3092
2.7425,-8.2881
2.7430,-30.5673
2.7435,-63.2231
2.7440,-110.5283
2.7445,-159.9698
2.7450,-188.3528
2.7455,-193.8463
2.7460,-195.3723
2.7465,-192.9308
2.7470,-163.6321
2.7475,-105.6452
2.7480,-53.7621
2.7485,-30.8725
2.7490,-18.9699
2.7495,8.8027
2.7500,61.9066
2.7505,151.0233
2.7510,294.1595
2.7515,472.0879
2.7520,613.0877
2.7525,664.6655
2.7530,646.6591
2.7535,611.5617
2.7540,572.1916
2.7545,510.8475
2.7550,432.7178
2.7555,364.9646
2.7560,313.9972
2.7565,263.3349
2.7570,212.0622
2.7575,176.9649
2.7580,157.4324
2.7585,133.0169
2.7590,95.7832
2.7595,64.9585
2.7600,54.5819
2.7605,54.5819
2.7610,49.3936
2.7615,36.5754
2.7620,22.8417
2.7625,9.7183
2.7630,-0.6583
2.7635,-4.6258
2.7640,-4.3206
2.7645,-9.8141
2.7650,-27.2102
2.7655,-49.1842
2.7660,-66.2751
2.7665,-77.2621
2.7670,-87.0283
2.7675,-96.4893
2.7680,-100.7620
2.7685,-100.7620
2.7690,-103.5088
2.7695,-113.2750
2.7700,-124.8724
2.7705,-129.1451
2.7710,-125.7880
2.7715,-121.8205
2.7720,-123.3464
2.7725,-126.7036
2.7730,-123.0412
2.7735,-109.0023
2.7740,-89.1647
2.7745,-68.4114
2.7750,-45.5219
2.7755,-18.3596
2.7760,5.4456
2.7765,14.2962
2.7770,3.9196
2.7775,-9.8141
2.7780,-10.7297
2.7785,-0.3531
2.7790,5.4456
2.7795,1.4781
2.7800,-0.9635
2.7805,5.7508
2.7810,13.0755
2.7815,8.4976
2.7820,-2.1843
2.7825,-0.9635
2.7830,18.2638
2.7835,43.2897
2.7840,60.6858
2.7845,69.8416
2.7850,75.6403
2.7855,77.4715
2.7860,70.7572
2.7865,56.1079
2.7870,42.6793
2.7875,39.0170
2.7880,47.5624
2.7885,60.3806
2.7890,65.2637
2.7895,53.3611
2.7900,29.8612
2.7905,11.8547
2.7910,12.1599
2.7915,26.5040
2.7920,37.1858
2.7925,33.8287
2.7930,22.8417
2.7935,15.2118
2.7940,8.8027
2.7945,-4.9310
2.7950,-28.1258
2.7955,-48.2686
2.7960,-57.4244
2.7965,-58.6452
2.7970,-58.6452
2.7975,-56.5089
2.7980,-49.1842
2.7985,-42.7751
2.7990,-44.9115
2.7995,-52.2361
2.8000,-51.9309
2.8005,-39.7232
2.8010,-25.3790
2.8015,-18.0544
2.8020,-17.4440
2.8025,-17.4440
2.8030,-16.8336
2.8035,-15.0024
2.8040,-7.0674
2.8045,8.4976
2.8050,24.0625
2.8055,25.8936
2.8060,10.6339
2.8065,-10.4245
2.8070,-25.6842
2.8075,-30.5673
2.8080,-28.7362
2.8085,-24.4634
2.8090,-19.8855
2.8095,-13.1713
2.8100,-0.9635
2.8105,17.3482
2.8110,36.5754
2.8115,46.9520
2.8120,46.9520
2.8125,44.5105
2.8130,45.1209
2.8135,47.5624
2.8140,48.4780
2.8145,50.6144
2.8150,58.2442
2.8155,67.7053
2.8160,70.7572
2.8165,62.8222
2.8170,47.8676
2.8175,32.9131
2.8180,21.9261
2.8185,13.9911
2.8190,5.1404
2.8195,-7.0674
2.8200,-20.4959
2.8205,-28.4310
2.8210,-27.5154
2.8215,-20.8011
2.8220,-11.9505
2.8225,-4.6258
2.8230,-2.7946
2.8235,-11.0349
2.8240,-27.8206
2.8245,-44.9115
2.8250,-54.9829
2.8255,-61.0868
2.8260,-67.8011
2.8265,-71.4634
2.8270,-64.7491
2.8275,-48.2686
2.8280,-30.8725
2.8285,-20.1907
2.8290,-15.3076
2.8295,-12.5609
2.8300,-10.1193
2.8305,-8.2881
2.8310,-6.1518
2.8315,-3.0998
2.8320,-0.0479
2.8325,1.1729
2.8330,2.3937
2.8335,5.4456
2.8340,9.4131
2.8345,11.2443
2.8350,10.9391
2.8355,13.3807
2.8360,21.9261
2.8365,32.6079
2.8370,39.6274
2.8375,42.3741
2.8380,46.0365
2.8385,53.9715
2.8390,61.9066
2.8395,62.5170
2.8400,52.7507
2.8405,37.4910
2.8410,25.2832
2.8415,20.0949
2.8420,19.1794
2.8425,16.4326
2.8430,8.1924
2.8435,-2.7946
2.8440,-11.6453
2.8445,-14.3920
2.8450,-10.4245
2.8455,-2.1843
2.8460,3.9196
2.8465,1.7833
2.8470,-8.8985
2.8475,-22.3271
2.8480,-29.6517
2.8485,-30.8725
2.8490,-30.2621
2.8495,-29.3466
2.8500,-24.1582
2.8505,-14.3920
2.8510,-5.5414
2.8515,-3.4050
2.8520,-4.9310
2.8525,-4.0154
2.8530,-1.8791
2.8535,-5.5414
2.8540,-15.6128
2.8545,-25.0738
2.8550,-27.8206
2.8555,-26.5998
2.8560,-25.3790
2.8565,-24.4634
2.8570,-22.0219
2.8575,-18.6648
2.8580,-16.5284
2.8585,-16.5284
2.8590,-17.7492
2.8595,-17.4440
2.8600,-12.8661
2.8605,-3.7102
2.8610,4.8352
2.8615,9.1079
2.8620,9.7183
2.8625,10.3287
2.8630,7.2768
2.8635,-2.7946
2.8640,-16.5284
2.8645,-22.9375
2.8650,-20.1907
2.8655,-17.7492
2.8660,-21.4115
2.8665,-22.6323
2.8670,-13.7816
2.8675,-0.3531
2.8680,7.8872
2.8685,9.7183
2.8690,10.3287
2.8695,10.0235
2.8700,6.6664
2.8705,4.2248
2.8710,8.4976
2.8715,16.7378
2.8720,20.4001
2.8725,16.4326
2.8730,10.9391
2.8735,10.3287
2.8740,14.6014
2.8745,20.7053
2.8750,25.5884
2.8755,27.1144
2.8760,23.7573
2.8765,16.4326
2.8770,6.9716
2.8775,-4.3206
2.8780,-14.6972
2.8785,-18.0544
2.8790,-11.3401
2.8795,0.5625
2.8800,10.3287
2.8805,17.6534
2.8810,24.9780
2.8815,30.4715
2.8820,28.3352
2.8825,18.5690
2.8830,8.8027
2.8835,5.7508
2.8840,7.2768
2.8845,8.8027
2.8850,7.2768
2.8855,3.3092
2.8860,-1.2687
2.8865,-6.1518
2.8870,-7.3726
2.8875,-5.2362
2.8880,-5.8466
2.8885,-12.8661
2.8890,-22.0219
2.8895,-23.8531
2.8900,-17.1388
2.8905,-10.7297
2.8910,-11.3401
2.8915,-15.0024
2.8920,-15.9180
2.8925,-15.6128
2.8930,-18.9699
2.8935,-23.8531
2.8940,-24.1582
2.8945,-20.4959
2.8950,-19.2751
2.8955,-23.2427
2.8960,-27.8206
2.8965,-30.2621
2.8970,-32.0933
2.8975,-34.8401
2.8980,-36.0608
2.8985,-34.8401
2.8990,-35.7556
2.8995,-41.5543
2.9000,-49.7946
2.9005,-55.8985
2.9010,-55.8985
2.9015,-48.5738
2.9020,-34.5349
2.9025,-20.1907
2.9030,-11.6453
2.9035,-9.8141
2.9040,-9.5089
2.9045,-8.8985
2.9050,-9.8141
2.9055,-13.4764
2.9060,-18.6648
2.9065,-23.5479
2.9070,-27.8206
2.9075,-29.3466
2.9080,-25.6842
2.9085,-18.9699
2.9090,-13.4764
2.9095,-8.5933
2.9100,-0.3531
2.9105,9.7183
2.9110,14.2962
2.9115,10.6339
2.9120,2.0885
2.9125,-6.4570
2.9130,-14.6972
2.9135,-16.5284
2.9140,-6.7622
2.9145,10.6339
2.9150,22.8417
2.9155,21.6209
2.9160,13.9911
2.9165,9.4131
2.9170,7.5820
2.9175,2.3937
2.9180,-4.9310
2.9185,-9.2037
2.9190,-9.2037
2.9195,-8.8985
2.9200,-11.6453
2.9205,-14.3920
2.9210,-11.3401
2.9215,-3.0998
2.9220,3.3092
2.9225,-0.0479
2.9230,-11.3401
2.9235,-18.9699
2.9240,-11.0349
2.9245,9.4131
2.9250,27.4196
2.9255,31.6923
2.9260,27.1144
2.9265,24.6729
2.9270,29.2508
2.9275,34.1339
2.9280,29.8612
2.9285,13.0755
2.9290,-11.0349
2.9295,-31.7881
2.9300,-39.4180
2.9305,-34.8401
2.9310,-26.5998
2.9315,-21.7167
2.9320,-20.1907
2.9325,-18.9699
2.9330,-16.5284
2.9335,-11.6453
2.9340,-2.1843
2.9345,11.8547
2.9350,28.3352
2.9355,41.7637
2.9360,49.3936
2.9365,52.1404
2.9370,52.4455
2.9375,52.7507
2.9380,56.4131
2.9385,62.2118
2.9390,66.7897
2.9395,66.7897
2.9400,63.4325
2.9405,60.3806
2.9410,59.1598
2.9415,58.2442
2.9420,55.1923
2.9425,50.9196
2.9430,49.0884
2.9435,50.9196
2.9440,53.3611
2.9445,53.0559
2.9450,50.0040
2.9455,46.6469
2.9460,43.2897
2.9465,37.4910
2.9470,28.6404
2.9475,20.0949
2.9480,13.9911
2.9485,9.7183
2.9490,5.4456
2.9495,0.2573
2.9500,-5.2362
2.9505,-10.1193
2.9510,-12.2557
2.9515,-11.9505
2.9520,-12.2557
2.9525,-16.8336
2.9530,-22.6323
2.9535,-24.7686
2.9540,-23.2427
2.9545,-22.3271
2.9550,-23.8531
2.9555,-25.9894
2.9560,-27.5154
2.9565,-29.9569
2.9570,-32.7037
2.9575,-31.7881
2.9580,-27.2102
2.9585,-24.1582
2.9590,-22.0219
2.9595,-12.8661
2.9600,5.1404
2.9605,19.7897
2.9610,14.9066
2.9615,-5.8466
2.9620,-23.2427
2.9625,-24.4634
2.9630,-19.2751
2.9635,-24.1582
2.9640,-40.0284
2.9645,-52.5413
2.9650,-52.5413
2.9655,-45.8271
2.9660,-41.8595
2.9665,-41.5543
2.9670,-40.0284
2.9675,-35.1452
2.9680,-31.4829
2.9685,-31.1777
2.9690,-29.9569
2.9695,-24.4634
2.9700,-18.0544
2.9705,-16.5284
2.9710,-18.9699
2.9715,-19.5803
2.9720,-15.3076
2.9725,-9.8141
2.9730,-7.6778
2.9735,-7.9829
2.9740,-7.0674
2.9745,-3.0998
2.9750,1.1729
2.9755,3.6144
2.9760,3.6144
2.9765,3.3092
2.9770,2.6989
2.9775,1.4781
2.9780,0.5625
2.9785,1.7833
2.9790,4.2248
2.9795,5.4456
2.9800,5.1404
2.9805,5.4456
2.9810,7.2768
2.9815,7.2768
2.9820,4.5300
2.9825,1.4781
2.9830,-0.0479
2.9835,-1.2687
2.9840,-4.3206
2.9845,-7.0674
2.9850,-7.9829
2.9855,-9.8141
2.9860,-16.5284
2.9865,-26.2946
2.9870,-34.2297
2.9875,-39.4180
2.9880,-45.2167
2.9885,-50.0998
2.9890,-48.8790
2.9895,-40.3336
2.9900,-30.5673
2.9905,-24.4634
2.9910,-17.4440
2.9915,-3.7102
2.9920,16.4326
2.9925,37.1858
2.9930,51.5300
2.9935,54.5819
2.9940,49.0884
2.9945,42.9845
2.9950,45.1209
2.9955,54.5819
2.9960,61.2962
2.9965,58.2442
2.9970,48.4780
2.9975,39.3222
2.9980,33.8287
2.9985,30.4715
2.9990,27.4196
2.9995,24.0625
3.0000,19.7897
3.0005,16.1274
3.0010,15.2118
3.0015,16.7378
3.0020,16.7378
3.0025,13.6859
3.0030,9.7183
3.0035,7.8872
3.0040,7.2768
3.0045,6.9716
3.0050,9.1079
3.0055,13.6859
3.0060,17.0430
3.0065,14.6014
3.0070,7.8872
3.0075,1.7833
3.0080,-0.9635
3.0085,-2.7946
3.0090,-3.4050
3.0095,-2.4894
3.0100,-0.3531
3.0105,-0.3531
3.0110,-2.1843
3.0115,-4.0154
3.0120,-4.0154
3.0125,-3.0998
3.0130,-3.7102
3.0135,-5.8466
3.0140,-7.0674
3.0145,-5.8466
3.0150,-2.7946
3.0155,-0.0479
3.0160,1.1729
3.0165,1.1729
3.0170,2.6989
3.0175,5.7508
3.0180,7.8872
3.0185,7.5820
3.0190,7.2768
3.0195,9.7183
3.0200,14.6014
3.0205,17.0430
3.0210,14.2962
3.0215,7.5820
3.0220,1.7833
3.0225,-0.6583
3.0230,-0.6583
3.0235,-1.2687
3.0240,-4.0154
3.0245,-7.6778
3.0250,-9.2037
3.0255,-9.5089
3.0260,-10.4245
3.0265,-12.8661
3.0270,-14.6972
3.0275,-13.7816
3.0280,-8.8985
3.0285,-2.7946
3.0290,3.0041
3.0295,7.8872
3.0300,11.5495
3.0305,13.9911
3.0310,15.2118
3.0315,15.5170
3.0320,17.0430
3.0325,19.7897
3.0330,20.4001
3.0335,17.6534
3.0340,13.6859
3.0345,11.8547
3.0350,12.1599
3.0355,10.6339
3.0360,5.1404
3.0365,-1.5739
3.0370,-4.3206
3.0375,-0.0479
3.0380,10.3287
3.0385,21.6209
3.0390,30.1664
3.0395,34.7443
3.0400,36.5754
3.0405,35.0495
3.0410,28.6404
3.0415,17.3482
3.0420,5.7508
3.0425,-1.8791
3.0430,-6.1518
3.0435,-10.4245
3.0440,-18.0544
3.0445,-26.5998
3.0450,-30.8725
3.0455,-27.8206
3.0460,-21.1063
3.0465,-16.8336
3.0470,-15.9180
3.0475,-13.4764
3.0480,-6.1518
3.0485,1.4781
3.0490,3.0041
3.0495,-0.9635
3.0500,-4.0154
3.0505,-2.7946
3.0510,-0.3531
3.0515,-0.0479
3.0520,-2.1843
3.0525,-5.2362
3.0530,-7.3726
3.0535,-8.2881
3.0540,-7.9829
3.0545,-7.0674
3.0550,-7.9829
3.0555,-10.7297
3.0560,-12.8661
3.0565,-13.7816
3.0570,-14.0868
3.0575,-14.6972
3.0580,-12.8661
3.0585,-9.2037
3.0590,-6.7622
3.0595,-8.2881
3.0600,-11.0349
3.0605,-12.8661
3.0610,-15.3076
3.0615,-19.5803
3.0620,-23.8531
3.0625,-23.8531
3.0630,-19.2751
3.0635,-13.1713
3.0640,-8.8985
3.0645,-8.2881
3.0650,-10.1193
3.0655,-11.9505
3.0660,-11.0349
3.0665,-7.0674
3.0670,-1.8791
3.0675,3.0041
3.0680,6.0560
3.0685,4.8352
3.0690,-0.9635
3.0695,-7.3726
3.0700,-8.5933
3.0705,-3.7102
3.0710,1.7833
3.0715,5.7508
3.0720,8.8027
3.0725,12.4651
3.0730,14.9066
3.0735,13.3807
3.0740,8.8027
3.0745,3.0041
3.0750,-1.5739
3.0755,-4.9310
3.0760,-7.9829
3.0765,-12.5609
3.0770,-18.0544
3.0775,-21.1063
3.0780,-19.8855
3.0785,-19.2751
3.0790,-23.8531
3.0795,-30.2621
3.0800,-29.9569
3.0805,-21.1063
3.0810,-10.1193
3.0815,-1.8791
3.0820,4.5300
3.0825,9.1079
3.0830,6.0560
3.0835,-4.9310
3.0840,-15.9180
3.0845,-18.9699
3.0850,-16.5284
3.0855,-17.1388
3.0860,-21.4115
3.0865,-23.8531
3.0870,-21.1063
3.0875,-14.3920
3.0880,-8.5933
3.0885,-5.2362
3.0890,-2.7946
3.0895,0.8677
3.0900,7.5820
3.0905,13.9911
3.0910,15.2118
3.0915,10.0235
3.0920,3.0041
3.0925,-1.2687
3.0930,-3.7102
3.0934,-4.3206
3.0939,-2.4894
3.0944,0.5625
3.0949,3.9196
3.0954,5.4456
3.0959,6.6664
3.0964,8.4976
3.0969,9.4131
3.0974,6.9716
3.0979,0.2573
3.0984,-8.2881
3.0989,-15.9180
3.0994,-19.8855
3.0999,-19.8855
3.1004,-18.6648
3.1009,-18.6648
3.1014,-18.0544
3.1019,-15.0024
3.1024,-11.3401
3.1029,-10.7297
3.1034,-13.1713
3.1039,-15.0024
3.1044,-14.3920
3.1049,-11.6453
3.1054,-5.5414
3.1059,3.0041
3.1064,10.0235
3.1069,9.1079
3.1074,2.3937
3.1079,-3.7102
3.1084,-7.3726
3.1089,-10.7297
3.1094,-13.4764
3.1099,-13.4764
3.1104,-10.1193
3.1109,-7.0674
3.1114,-5.5414
3.1119,-3.4050
3.1124,-0.3531
3.1129,1.4781
3.1134,0.8677
3.1139,-0.0479
3.1144,-0.3531
3.1149,-1.2687
3.1154,-3.7102
3.1159,-5.5414
3.1164,-4.6258
3.1169,-2.7946
3.1174,-0.6583
3.1179,2.6989
3.1184,6.3612
3.1189,6.6664
3.1194,3.0041
3.1199,-0.0479
3.1204,-0.0479
3.1209,1.1729
3.1214,-0.0479
3.1219,-1.5739
3.1224,-0.3531
3.1229,2.3937
3.1234,3.0041
3.1239,1.7833
3.1244,2.6989
3.1249,6.6664
3.1254,10.3287
3.1259,10.6339
3.1264,10.0235
3.1269,11.8547
3.1274,13.3807
3.1279,11.2443
3.1284,7.2768
3.1289,7.8872
3.1294,15.2118
3.1299,22.2313
3.1304,22.8417
3.1309,18.5690
3.1314,14.6014
3.1319,11.5495
3.1324,7.5820
3.1329,5.1404
3.1334,9.4131
3.1339,18.8742
3.1344,25.2832
3.1349,22.8417
3.1354,15.8222
3.1359,10.6339
3.1364,7.5820
3.1369,3.9196
3.1374,1.1729
3.1379,3.3092
3.1384,8.4976
3.1389,10.3287
3.1394,7.5820
3.1399,4.8352
3.1404,6.9716
3.1409,12.1599
3.1414,15.2118
3.1419,14.2962
3.1424,12.1599
3.1429,11.2443
3.1434,12.7703
3.1439,16.4326
3.1444,21.0105
3.1449,25.5884
3.1454,28.9456
3.1459,30.4715
3.1464,29.2508
3.1469,26.8092
3.1474,25.5884
3.1479,26.1988
3.1484,27.4196
3.1489,29.5560
3.1494,35.0495
3.1499,44.2053
3.1504,51.8352
3.1509,51.8352
3.1514,47.8676
3.1519,47.2572
3.1524,49.3936
3.1529,45.4261
3.1534,30.4715
3.1539,11.5495
3.1544,-0.6583
3.1549,-6.4570
3.1554,-11.0349
3.1559,-16.2232
3.1564,-19.5803
3.1569,-21.7167
3.1574,-25.3790
3.1579,-29.6517
3.1584,-29.6517
3.1589,-25.6842
3.1594,-24.7686
3.1599,-28.7362
3.1604,-30.8725
3.1609,-26.2946
3.1614,-18.9699
3.1619,-16.2232
3.1624,-17.4440
3.1629,-16.5284
3.1634,-11.6453
3.1639,-4.9310
3.1644,-0.9635
3.1649,-0.9635
3.1654,-4.3206
3.1659,-9.5089
3.1664,-13.7816
3.1669,-17.4440
3.1674,-19.5803
3.1679,-17.7492
3.1684,-11.9505
3.1689,-7.3726
3.1694,-8.5933
3.1699,-12.2557
3.1704,-11.9505
3.1709,-12.8661
3.1714,-24.4634
3.1719,-43.6907
3.1724,-53.4569
3.1729,-45.2167
3.1734,-31.7881
3.1739,-28.4310
3.1744,-33.3141
3.1749,-33.9245
3.1754,-28.4310
3.1759,-26.5998
3.1764,-31.4829
3.1769,-35.1452
3.1774,-33.3141
3.1779,-29.9569
3.1784,-29.6517
3.1789,-31.1777
3.1794,-30.8725
3.1799,-30.8725
3.1804,-33.9245
3.1809,-37.5868
3.1814,-36.9764
3.1819,-29.6517
3.1824,-18.3596
3.1829,-8.5933
3.1834,-3.0998
3.1839,0.8677
3.1844,7.8872
3.1849,16.1274
3.1854,18.5690
3.1859,11.8547
3.1864,1.7833
3.1869,-3.0998
3.1874,-1.8791
3.1879,-0.9635
3.1884,-4.3206
3.1889,-8.8985
3.1894,-8.8985
3.1899,-4.0154
3.1904,2.0885
3.1909,9.1079
3.1914,13.9911
3.1919,15.5170
3.1924,13.9911
3.1929,15.2118
3.1934,21.3157
3.1939,27.1144
3.1944,25.8936
3.1949,20.7053
3.1954,17.9586
3.1959,16.7378
3.1964,11.8547
3.1969,2.6989
3.1974,-3.4050
3.1979,-5.8466
3.1984,-9.8141
3.1989,-16.5284
3.1994,-17.7492
3.1999,-11.6453
3.2004,-5.8466
3.2009,-6.1518
3.2014,-6.7622
3.2019,-0.3531
3.2024,9.7183
3.2029,15.8222
3.2034,19.7897
3.2039,26.1988
3.2044,30.7767
3.2049,27.7248
3.2054,22.5365
3.2059,23.4521
3.2064,27.1144
3.2069,22.2313
3.2074,8.8027
3.2079,-0.6583
3.2084,0.5625
3.2089,8.1924
3.2094,15.5170
3.2099,21.0105
3.2104,25.8936
3.2109,27.7248
3.2114,25.5884
3.2119,22.2313
3.2124,21.0105
3.2129,21.9261
3.2134,23.4521
3.2139,24.0625
3.2144,21.6209
3.2149,15.2118
3.2154,7.2768
3.2159,0.2573
3.2164,-5.5414
3.2169,-9.5089
3.2174,-8.8985
3.2179,-4.0154
3.2184,-0.3531
3.2189,-1.8791
3.2194,-5.2362
3.2199,-4.9310
3.2204,-2.7946
3.2209,-4.6258
3.2214,-9.8141
3.2219,-12.5609
3.2224,-8.8985
3.2229,-0.9635
3.2234,6.3612
3.2239,10.6339
3.2244,10.3287
3.2249,7.2768
3.2254,6.6664
3.2259,9.1079
3.2264,9.7183
3.2269,5.4456
3.2274,0.8677
3.2279,2.3937
3.2284,7.8872
3.2289,8.8027
3.2294,5.7508
3.2299,6.6664
3.2304,14.2962
3.2309,22.8417
3.2314,24.6729
3.2319,19.7897
3.2324,12.4651
3.2329,6.9716
3.2334,5.4456
3.2339,7.8872
3.2344,10.6339
3.2349,8.4976
3.2354,2.3937
3.2359,-0.6583
3.2364,3.6144
3.2369,13.9911
3.2374,24.3677
3.2379,29.8612
3.2384,28.6404
3.2389,21.6209
3.2394,13.0755
3.2399,5.7508
3.2404,-1.5739
3.2409,-14.3920
3.2414,-31.1777
3.2419,-45.5219
3.2424,-49.1842
3.2429,-42.1647
3.2434,-30.8725
3.2439,-22.0219
3.2444,-18.0544
3.2449,-19.2751
3.2454,-22.6323
3.2459,-25.3790
3.2464,-25.3790
3.2469,-22.3271
3.2474,-17.4440
3.2479,-13.7816
3.2484,-12.5609
3.2489,-12.2557
3.2494,-8.8985
3.2499,-0.9635
3.2504,6.9716
3.2509,7.8872
3.2514,-1.8791
3.2519,-19.5803
3.2524,-36.3660
3.2529,-43.0803
3.2534,-36.3660
3.2539,-21.7167
3.2544,-6.7622
3.2549,4.8352
3.2554,15.8222
3.2559,26.1988
3.2564,30.1664
3.2569,25.2832
3.2574,16.4326
3.2579,11.5495
3.2584,12.7703
3.2589,17.9586
3.2594,25.8936
3.2599,35.0495
3.2604,41.1534
3.2609,39.9326
3.2614,31.9975
3.2619,23.4521
3.2624,17.6534
3.2629,15.5170
3.2634,16.1274
3.2639,20.0949
3.2644,24.6729
3.2649,26.1988
3.2654,21.9261
3.2659,12.4651
3.2664,0.2573
3.2669,-7.9829
3.2674,-7.3726
3.2679,1.4781
3.2684,9.1079
3.2689,6.9716
3.2694,-3.4050
3.2699,-14.6972
3.2704,-21.7167
3.2709,-24.1582
3.2714,-23.8531
3.2719,-22.0219
3.2724,-20.4959
3.2729,-20.8011
3.2734,-20.8011
3.2739,-18.3596
3.2744,-14.0868
3.2749,-12.5609
3.2754,-14.6972
3.2759,-16.5284
3.2764,-18.0544
3.2769,-25.3790
3.2774,-41.5543
3.2779,-60.7816
3.2784,-73.2945
3.2789,-74.8205
3.2794,-66.8855
3.2799,-52.5413
3.2804,-36.0608
3.2809,-26.5998
3.2814,-32.7037
3.2819,-49.1842
3.2824,-60.4764
3.2829,-56.5089
3.2834,-41.5543
3.2839,-26.2946
3.2844,-16.8336
3.2849,-14.0868
3.2854,-18.0544
3.2859,-21.7167
3.2864,-15.3076
3.2869,0.5625
3.2874,12.4651
3.2879,7.8872
3.2884,-9.8141
3.2889,-29.6517
3.2894,-43.9959
3.2899,-50.0998
3.2904,-43.6907
3.2909,-29.0414
3.2914,-23.8531
3.2919,-38.1972
3.2924,-58.0348
3.2929,-58.9504
3.2934,-37.2816
3.2939,-13.1713
3.2944,-3.0998
3.2949,-5.5414
3.2954,-11.0349
3.2959,-15.6128
3.2964,-18.0544
3.2969,-15.6128
3.2974,-6.1518
3.2979,3.9196
3.2984,7.2768
3.2989,2.3937
3.2994,-4.6258
3.2999,-6.4570
3.3004,-1.8791
3.3009,4.5300
3.3014,9.7183
3.3019,17.0430
3.3024,29.8612
3.3029,41.4585
3.3034,43.9001
3.3039,37.7962
3.3044,31.6923
3.3049,28.3352
3.3054,24.6729
3.3059,24.0625
3.3064,34.7443
3.3069,54.8871
3.3074,68.3157
3.3079,67.0949
3.3084,60.0754
3.3089,56.7183
3.3094,54.5819
3.3099,50.6144
3.3104,52.7507
3.3109,64.9585
3.3114,74.1143
3.3119,67.7053
3.3124,54.8871
3.3129,51.8352
3.3134,57.9390
3.3139,60.3806
3.3144,56.4131
3.3149,55.8027
3.3154,60.9910
3.3159,62.2118
3.3164,56.1079
3.3169,53.0559
3.3174,58.8546
3.3179,66.7897
3.3184,69.2312
3.3189,68.0105
3.3194,68.6209
3.3199,68.6209
3.3204,64.3481
3.3209,58.2442
3.3214,54.5819
3.3219,52.1404
3.3224,46.6469
3.3229,37.1858
3.3234,28.0300
3.3239,20.4001
3.3244,14.2962
3.3249,9.4131
3.3254,6.0560
3.3259,3.9196
3.3264,0.5625
3.3269,-4.0154
3.3274,-10.7297
3.3279,-18.0544
3.3284,-25.3790
3.3289,-31.1777
3.3294,-34.5349
3.3299,-38.5024
3.3304,-44.9115
3.3309,-52.8465
3.3314,-58.0348
3.3319,-59.5608
3.3324,-62.9179
3.3329,-68.4114
3.3334,-69.9374
3.3339,-60.7816
3.3344,-44.3011
3.3349,-29.6517
3.3354,-20.1907
3.3359,-12.5609
3.3364,-6.1518
3.3369,-3.7102
3.3374,-3.0998
3.3379,3.3092
3.3384,15.2118
3.3389,20.0949
3.3394,12.4651
3.3399,3.3092
3.3404,6.9716
3.3409,22.5365
3.3414,36.2702
3.3419,44.2053
3.3424,53.0559
3.3429,67.0949
3.3434,79.3027
3.3439,84.1858
3.3444,83.2702
3.3449,80.8286
3.3454,74.4195
3.3459,62.5170
3.3464,48.1728
3.3469,35.9650
3.3474,26.5040
3.3479,18.2638
3.3484,10.6339
3.3489,3.3092
3.3494,-4.0154
3.3499,-13.1713
3.3504,-21.7167
3.3509,-26.9050
3.3514,-28.1258
3.3519,-24.7686
3.3524,-18.0544
3.3529,-12.2557
3.3534,-12.8661
3.3539,-20.4959
3.3544,-28.7362
3.3549,-33.9245
3.3554,-37.2816
3.3559,-40.3336
3.3564,-40.6387
3.3569,-38.1972
3.3574,-37.5868
3.3579,-41.2491
3.3584,-43.9959
3.3589,-39.4180
3.3594,-29.3466
3.3599,-20.8011
3.3604,-16.5284
3.3609,-13.4764
3.3614,-10.7297
3.3619,-9.8141
3.3624,-10.7297
3.3629,-11.6453
3.3634,-12.2557
3.3639,-15.6128
3.3644,-21.1063
3.3649,-25.9894
3.3654,-27.8206
3.3659,-28.4310
3.3664,-30.5673
3.3669,-34.5349
3.3674,-39.1128
3.3679,-42.1647
3.3684,-41.2491
3.3689,-39.1128
3.3694,-41.2491
3.3699,-49.7946
3.3704,-59.8660
3.3709,-67.4959
3.3714,-76.9569
3.3719,-92.2166
3.3724,-106.8659
3.3729,-109.9179
3.3734,-100.7620
3.3739,-90.0802
3.3744,-84.2815
3.3749,-78.4829
3.3754,-70.5478
3.3759,-66.2751
3.3764,-69.6322
3.3769,-73.5997
3.3774,-72.3790
3.3779,-70.2426
3.3784,-72.3790
3.3789,-73.5997
3.3794,-65.0543
3.3799,-51.9309
3.3804,-45.8271
3.3809,-50.0998
3.3814,-54.6777
3.3819,-53.7621
3.3824,-53.4569
3.3829,-57.1192
3.3834,-58.9504
3.3839,-51.6257
3.3844,-36.6712
3.3849,-23.2427
3.3854,-15.6128
3.3859,-14.0868
3.3864,-17.7492
3.3869,-25.3790
3.3874,-33.3141
3.3879,-36.3660
3.3884,-34.5349
3.3889,-31.4829
3.3894,-30.5673
3.3899,-30.5673
3.3904,-26.2946
3.3909,-15.0024
3.3914,-0.9635
3.3919,6.0560
3.3924,0.5625
3.3929,-12.2557
3.3934,-20.1907
3.3939,-17.1388
3.3944,-7.3726
3.3949,1.7833
3.3954,7.8872
3.3959,10.3287
3.3964,8.8027
3.3969,3.9196
3.3974,-0.6583
3.3979,-2.7946
3.3984,-1.8791
3.3989,0.5625
3.3994,5.4456
3.3999,11.5495
3.4004,17.0430
3.4009,20.7053
3.4014,23.4521
3.4019,26.5040
3.4024,28.3352
3.4029,28.6404
3.4034,29.2508
3.4039,31.3871
3.4044,33.8287
3.4049,35.0495
3.4054,35.3547
3.4059,36.2702
3.4064,38.7118
3.4069,41.4585
3.4074,43.2897
3.4079,42.6793
3.4084,39.9326
3.4089,37.7962
3.4094,39.3222
3.4099,45.7313
3.4104,54.8871
3.4109,61.6014
3.4114,62.5170
3.4119,57.0235
3.4124,46.9520
3.4129,34.4391
3.4134,23.4521
3.4139,18.8742
3.4144,22.8417
3.4149,31.0819
3.4154,36.8806
3.4159,40.2378
3.4164,45.4261
3.4169,52.7507
3.4174,56.1079
3.4179,53.6663
3.4184,52.1404
3.4189,55.1923
3.4194,59.7702
3.4199,63.7377
3.4204,70.1468
3.4209,80.8286
3.4214,87.2377
3.4219,82.6598
3.4224,71.9780
3.4229,65.2637
3.4234,62.5170
3.4239,57.6339
3.4244,50.9196
3.4249,49.3936
3.4254,53.3611
3.4259,54.8871
3.4264,49.0884
3.4269,38.4066
3.4274,27.4196
3.4279,18.8742
3.4284,14.2962
3.4289,13.0755
3.4294,10.3287
3.4299,3.3092
3.4304,-2.7946
3.4309,-2.4894
3.4314,3.9196
3.4319,10.3287
3.4324,13.9911
3.4329,16.1274
3.4334,17.0430
3.4339,16.4326
3.4344,14.9066
3.4349,15.2118
3.4354,16.7378
3.4359,16.1274
3.4364,13.9911
3.4369,14.2962
3.4374,17.3482
3.4379,17.9586
3.4384,13.0755
3.4389,5.7508
3.4394,0.5625
3.4399,-1.2687
3.4404,-2.1843
3.4409,-0.9635
3.4414,3.9196
3.4419,11.8547
3.4424,16.7378
3.4429,16.4326
3.4434,15.5170
3.4439,20.4001
3.4444,30.7767
3.4449,39.9326
3.4454,44.8157
3.4459,45.4261
3.4464,40.2378
3.4469,28.6404
3.4474,17.3482
3.4479,17.0430
3.4484,27.4196
3.4489,35.0495
3.4494,30.7767
3.4499,21.3157
3.4504,14.9066
3.4509,9.1079
3.4514,-0.6583
3.4519,-11.9505
3.4524,-20.1907
3.4529,-29.0414
3.4534,-40.0284
3.4539,-42.7751
3.4544,-30.2621
3.4549,-15.9180
3.4554,-19.5803
3.4559,-35.7556
3.4564,-40.6387
3.4569,-28.1258
3.4574,-17.4440
3.4579,-23.5479
3.4584,-33.9245
3.4589,-32.3985
3.4594,-22.6323
3.4599,-21.7167
3.4604,-33.0089
3.4609,-46.7426
3.4614,-56.8141
3.4619,-64.1387
3.4624,-65.6647
3.4629,-54.9829
3.4634,-35.7556
3.4639,-21.7167
3.4644,-17.7492
3.4649,-14.3920
3.4654,-1.8791
3.4659,14.2962
3.4664,22.2313
3.4669,17.0430
3.4674,7.2768
3.4679,0.2573
3.4684,-3.0998
3.4689,-5.5414
3.4694,-7.6778
3.4699,-9.8141
3.4704,-11.9505
3.4709,-12.5609
3.4714,-11.3401
3.4719,-9.5089
3.4724,-9.5089
3.4729,-9.8141
3.4734,-6.7622
3.4739,-2.1843
3.4744,-1.8791
3.4749,-9.8141
3.4754,-22.9375
3.4759,-33.0089
3.4764,-36.3660
3.4769,-34.2297
3.4774,-30.5673
3.4779,-29.0414
3.4784,-32.0933
3.4789,-37.2816
3.4794,-39.1128
3.4799,-31.7881
3.4804,-17.7492
3.4809,-4.6258
3.4814,2.3937
3.4819,3.9196
3.4824,3.0041
3.4829,1.1729
3.4834,-0.0479
3.4839,2.0885
3.4844,7.5820
3.4849,10.0235
3.4854,3.6144
3.4859,-6.7622
3.4864,-11.0349
3.4869,-7.0674
3.4874,-3.4050
3.4879,-6.1518
3.4884,-10.1193
3.4889,-7.6778
3.4894,-1.2687
3.4899,3.3092
3.4904,6.6664
3.4909,13.6859
3.4914,24.0625
3.4919,33.2183
3.4924,39.0170
3.4929,42.3741
3.4934,41.1534
3.4939,33.5235
3.4944,24.9780
3.4949,22.8417
3.4954,24.9780
3.4959,23.7573
3.4964,16.7378
3.4969,10.0235
3.4974,6.0560
3.4979,2.3937
3.4984,-1.8791
3.4989,-3.0998
3.4994,-0.0479
3.4999,4.2248
3.5004,5.4456
3.5009,4.2248
3.5014,0.8677
3.5019,-5.2362
3.5024,-12.5609
3.5029,-15.3076
3.5034,-13.1713
3.5039,-11.9505
3.5044,-16.2232
3.5049,-23.5479
3.5054,-29.6517
3.5059,-33.6193
3.5064,-36.0608
3.5069,-35.7556
3.5074,-31.4829
3.5079,-25.3790
3.5084,-19.8855
3.5089,-15.9180
3.5094,-13.7816
3.5099,-14.3920
3.5104,-15.9180
3.5109,-14.0868
3.5114,-8.8985
3.5119,-4.0154
3.5124,-1.2687
3.5129,0.8677
3.5134,5.7508
3.5139,10.6339
3.5144,13.3807
3.5149,13.9911
3.5154,13.6859
3.5159,11.5495
3.5164,7.5820
3.5169,6.6664
3.5174,12.4651
3.5179,21.3157
3.5184,25.8936
3.5189,25.2832
3.5194,27.1144
3.5199,36.5754
3.5204,48.4780
3.5209,53.3611
3.5214,49.6988
3.5219,40.8482
3.5224,28.9456
3.5229,13.3807
3.5234,-2.7946
3.5239,-14.0868
3.5244,-15.3076
3.5249,-9.8141
3.5254,-3.7102
3.5259,-1.2687
3.5264,-1.2687
3.5269,-2.1843
3.5274,-2.7946
3.5279,-4.3206
3.5284,-7.0674
3.5289,-11.0349
3.5294,-14.6972
3.5299,-17.1388
3.5304,-17.7492
3.5309,-15.9180
3.5314,-8.8985
3.5319,0.5625
3.5324,3.0041
3.5329,-6.7622
3.5334,-20.4959
3.5339,-24.7686
3.5344,-20.8011
3.5349,-22.0219
3.5354,-28.7362
3.5359,-28.1258
3.5364,-15.6128
3.5369,-7.3726
3.5374,-15.3076
3.5379,-27.5154
3.5384,-27.8206
3.5389,-20.8011
3.5394,-22.6323
3.5399,-33.0089
3.5404,-36.0608
3.5409,-26.9050
3.5414,-16.8336
3.5419,-13.1713
3.5424,-11.3401
3.5429,-11.0349
3.5434,-21.1063
3.5439,-39.4180
3.5444,-46.7426
3.5449,-29.6517
3.5454,-1.5739
3.5459,12.1599
3.5464,5.4456
3.5469,-7.0674
3.5474,-11.3401
3.5479,-7.0674
3.5484,-1.2687
3.5489,2.3937
3.5494,4.5300
3.5499,4.5300
3.5504,3.0041
3.5509,2.3937
3.5514,3.6144
3.5519,4.5300
3.5524,3.3092
3.5529,3.3092
3.5534,7.2768
3.5539,13.9911
3.5544,17.6534
3.5549,16.7378
3.5554,13.6859
3.5559,8.8027
3.5564,3.3092
3.5569,-0.3531
3.5574,-0.3531
3.5579,0.2573
3.5584,-2.7946
3.5589,-8.8985
3.5594,-11.0349
3.5599,-11.9505
3.5604,-19.8855
3.5609,-33.0089
3.5614,-34.8401
3.5619,-14.3920
3.5624,13.9911
3.5629,28.0300
3.5634,20.7053
3.5639,3.9196
3.5644,-8.8985
3.5649,-15.9180
3.5654,-17.4440
3.5659,-14.3920
3.5664,-9.2037
3.5669,-7.0674
3.5674,-7.9829
3.5679,-7.0674
3.5684,-2.4894
3.5689,2.0885
3.5694,3.3092
3.5699,0.8677
3.5704,-1.2687
3.5709,-1.2687
3.5714,-0.6583
3.5719,-6.4570
3.5724,-22.0219
3.5729,-39.7232
3.5734,-44.9115
3.5739,-31.7881
3.5744,-13.7816
3.5749,-9.2037
3.5754,-21.1063
3.5759,-37.5868
3.5764,-46.1322
3.5769,-46.7426
3.5774,-45.5219
3.5779,-43.3855
3.5784,-34.8401
3.5789,-17.7492
3.5794,0.2573
3.5799,9.1079
3.5804,7.2768
3.5809,3.9196
3.5814,6.6664
3.5819,12.4651
3.5824,16.1274
3.5829,19.7897
3.5834,27.7248
3.5839,35.3547
3.5844,35.0495
3.5849,29.2508
3.5854,29.2508
3.5859,38.1014
3.5864,46.6469
3.5869,47.8676
3.5874,43.5949
3.5879,37.4910
3.5884,28.0300
3.5889,16.1274
3.5894,7.8872
3.5899,6.3612
3.5904,7.8872
3.5909,9.7183
3.5914,14.2962
3.5919,22.5365
3.5924,26.1988
3.5929,19.4846
3.5934,8.1924
3.5939,1.1729
3.5944,-1.8791
3.5949,-7.6778
3.5954,-15.0024
3.5959,-16.2232
3.5964,-9.5089
3.5969,-1.8791
3.5974,-0.9635
3.5979,-7.6778
3.5984,-15.6128
3.5989,-19.8855
3.5994,-18.9699
3.5999,-14.3920
3.6004,-8.2881
3.6009,-2.1843
3.6014,0.2573
3.6019,-2.4894
3.6024,-9.2037
3.6029,-13.7816
3.6034,-12.5609
3.6039,-7.0674
3.6044,0.8677
3.6049,10.0235
3.6054,17.0430
3.6059,15.2118
3.6064,3.9196
3.6069,-7.9829
3.6074,-13.7816
3.6079,-15.9180
3.6084,-19.8855
3.6089,-23.8531
3.6094,-20.4959
3.6099,-11.6453
3.6104,-5.5414
3.6109,-4.0154
3.6114,-0.9635
3.6119,4.5300
3.6124,7.5820
3.6129,5.1404
3.6134,3.6144
3.6139,6.0560
3.6144,6.3612
3.6149,0.8677
3.6154,-3.4050
3.6159,1.1729
3.6164,11.8547
3.6169,18.2638
3.6174,15.2118
3.6179,6.9716
3.6184,0.2573
3.6189,0.2573
3.6194,7.2768
3.6199,15.8222
3.6204,16.4326
3.6209,8.8027
3.6214,2.3937
3.6219,5.4456
3.6224,12.4651
3.6229,14.9066
3.6234,13.3807
3.6239,16.4326
3.6244,24.9780
3.6249,30.7767
3.6254,29.2508
3.6259,28.0300
3.6264,35.3547
3.6269,45.4261
3.6274,44.2053
3.6279,27.4196
3.6284,8.1924
3.6289,-0.9635
3.6294,-3.4050
3.6299,-10.1193
3.6304,-23.2427
3.6309,-31.1777
3.6314,-27.5154
3.6319,-18.6648
3.6324,-13.7816
3.6329,-12.8661
3.6334,-11.9505
3.6339,-11.6453
3.6344,-16.2232
3.6349,-22.0219
3.6354,-22.0219
3.6359,-15.3076
3.6364,-9.2037
3.6369,-8.8985
3.6374,-11.0349
3.6379,-10.1193
3.6384,-3.7102
3.6389,4.2248
3.6394,9.1079
3.6399,10.0235
3.6404,10.6339
3.6409,13.3807
3.6414,17.0430
3.6419,17.3482
3.6424,13.9911
3.6429,12.1599
3.6434,15.8222
3.6439,20.7053
3.6444,21.9261
3.6449,20.0949
3.6454,17.0430
3.6459,12.1599
3.6464,3.6144
3.6469,-3.7102
3.6474,-3.0998
3.6479,4.8352
3.6484,11.5495
3.6489,11.8547
3.6494,10.0235
3.6499,10.9391
3.6504,13.9911
3.6509,14.9066
3.6514,15.5170
3.6519,19.7897
3.6524,28.3352
3.6529,35.3547
3.6534,37.1858
3.6539,34.4391
3.6544,30.7767
3.6549,29.5560
3.6554,30.7767
3.6558,30.7767
3.6563,26.5040
3.6568,18.2638
3.6573,11.5495
3.6578,9.1079
3.6583,8.4976
3.6588,8.1924
3.6593,9.1079
3.6598,11.2443
3.6603,6.3612
3.6608,-10.4245
3.6613,-32.3985
3.6618,-44.6063
3.6623,-41.8595
3.6628,-31.7881
3.6633,-21.4115
3.6638,-11.0349
3.6643,-0.6583
3.6648,4.2248
3.6653,3.9196
3.6658,5.1404
3.6663,14.6014
3.6668,27.7248
3.6673,34.7443
3.6678,32.9131
3.6683,25.2832
3.6688,17.0430
3.6693,10.0235
3.6698,4.8352
3.6703,-0.6583
3.6708,-9.5089
3.6713,-20.4959
3.6718,-29.0414
3.6723,-33.9245
3.6728,-37.8920
3.6733,-43.9959
3.6738,-50.7102
3.6743,-54.6777
3.6748,-55.5933
3.6753,-54.3725
3.6758,-50.0998
3.6763,-41.2491
3.6768,-32.0933
3.6773,-28.1258
3.6778,-31.1777
3.6783,-36.0608
3.6788,-36.9764
3.6793,-31.4829
3.6798,-22.3271
3.6803,-10.7297
3.6808,1.7833
3.6813,11.5495
3.6818,12.4651
3.6823,3.9196
3.6828,-4.9310
3.6833,-5.5414
3.6838,-0.3531
3.6843,-0.0479
3.6848,-7.0674
3.6853,-11.0349
3.6858,-3.7102
3.6863,7.8872
3.6868,16.4326
3.6873,25.5884
3.6878,42.0689
3.6883,57.3287
3.6888,58.8546
3.6893,49.6988
3.6898,45.4261
3.6903,48.7832
3.6908,43.5949
3.6913,20.4001
3.6918,-7.9829
3.6923,-25.6842
3.6928,-29.6517
3.6933,-27.5154
3.6938,-25.6842
3.6943,-27.2102
3.6948,-33.9245
3.6953,-43.3855
3.6958,-46.4374
3.6963,-42.1647
3.6968,-39.1128
3.6973,-41.8595
3.6978,-41.8595
3.6983,-30.8725
3.6988,-16.2232
3.6993,-10.7297
3.6998,-14.6972
3.7003,-18.3596
3.7008,-19.2751
3.7013,-24.1582
3.7018,-34.2297
3.7023,-43.0803
3.7028,-47.9634
3.7033,-54.3725
3.7038,-63.2231
3.7043,-68.7166
3.7048,-70.2426
3.7053,-73.2945
3.7058,-77.5673
3.7063,-69.3270
3.7068,-44.3011
3.7073,-17.1388
3.7078,-4.3206
3.7083,3.0041
3.7088,27.4196
3.7093,70.7572
3.7098,109.2117
3.7103,123.5558
3.7108,118.3675
3.7113,107.0753
3.7118,92.4260
3.7123,72.2832
3.7128,53.0559
3.7133,43.9001
3.7138,44.2053
3.7143,46.3417
3.7148,49.6988
3.7153,57.6339
3.7158,64.0429
3.7163,57.0235
3.7168,38.1014
3.7173,22.5365
3.7178,20.4001
3.7183,22.2313
3.7188,15.5170
3.7193,2.3937
3.7198,-4.3206
3.7203,-0.6583
3.7208,4.5300
3.7213,3.9196
3.7218,0.2573
3.7223,-0.6583
3.7228,0.2573
3.7233,-2.7946
3.7238,-13.7816
3.7243,-28.1258
3.7248,-41.8595
3.7253,-54.6777
3.7258,-66.8855
3.7263,-75.4309
3.7268,-78.4829
3.7273,-79.7036
3.7278,-83.3660
3.7283,-87.3335
3.7288,-86.4179
3.7293,-81.5348
3.7298,-77.5673
3.7303,-69.3270
3.7308,-44.6063
3.7313,-0.3531
3.7318,44.8157
3.7323,71.3676
3.7328,80.8286
3.7333,92.7312
3.7338,114.0948
3.7343,130.8805
3.7348,129.6597
3.7353,114.4000
3.7358,96.0883
3.7363,75.9455
3.7368,52.4455
3.7373,35.9650
3.7378,37.4910
3.7383,48.4780
3.7388,44.2053
3.7393,17.6534
3.7398,-12.2557
3.7403,-27.5154
3.7408,-29.6517
3.7413,-31.4829
3.7418,-34.5349
3.7423,-31.7881
3.7428,-24.4634
3.7433,-20.4959
3.7438,-22.6323
3.7443,-26.5998
3.7448,-28.7362
3.7453,-28.4310
3.7458,-23.5479
3.7463,-12.5609
3.7468,0.5625
3.7473,11.5495
3.7478,18.2638
3.7483,22.2313
3.7488,21.6209
3.7493,15.5170
3.7498,8.8027
3.7503,9.1079
3.7508,16.1274
3.7513,22.2313
3.7518,22.8417
3.7523,20.0949
3.7528,18.8742
3.7533,19.1794
3.7538,22.2313
3.7543,29.2508
3.7548,39.3222
3.7553,44.5105
3.7558,38.7118
3.7563,25.8936
3.7568,19.1794
3.7573,25.8936
3.7578,39.9326
3.7583,48.4780
3.7588,44.8157
3.7593,31.0819
3.7598,13.9911
3.7603,-4.3206
3.7608,-22.3271
3.7613,-35.1452
3.7618,-38.1972
3.7623,-33.6193
3.7628,-29.0414
3.7633,-28.4310
3.7638,-29.3466
3.7643,-28.7362
3.7648,-27.5154
3.7653,-27.8206
3.7658,-28.7362
3.7663,-29.0414
3.7668,-30.2621
3.7673,-33.9245
3.7678,-39.1128
3.7683,-44.3011
3.7688,-49.1842
3.7693,-52.5413
3.7698,-50.0998
3.7703,-40.3336
3.7708,-29.6517
3.7713,-25.3790
3.7718,-28.4310
3.7723,-34.2297
3.7728,-39.1128
3.7733,-41.2491
3.7738,-39.4180
3.7743,-35.1452
3.7748,-35.1452
3.7753,-40.6387
3.7758,-44.9115
3.7763,-40.3336
3.7768,-31.4829
3.7773,-28.4310
3.7778,-29.0414
3.7783,-23.5479
3.7788,-13.1713
3.7793,-10.1193
3.7798,-18.6648
3.7803,-26.2946
3.7808,-23.2427
3.7813,-14.6972
3.7818,-10.4245
3.7823,-10.7297
3.7828,-8.5933
3.7833,-2.4894
3.7838,4.5300
3.7843,9.7183
3.7848,11.5495
3.7853,7.5820
3.7858,0.2573
3.7863,-3.7102
3.7868,-2.1843
3.7873,1.4781
3.7878,3.3092
3.7883,2.0885
3.7888,-2.4894
3.7893,-10.7297
3.7898,-18.9699
3.7903,-22.0219
3.7908,-20.4959
3.7913,-19.5803
3.7918,-22.0219
3.7923,-25.3790
3.7928,-28.1258
3.7933,-31.4829
3.7938,-33.9245
3.7943,-30.8725
3.7948,-23.8531
3.7953,-19.8855
3.7958,-20.1907
3.7963,-16.8336
3.7968,-7.9829
3.7973,-1.8791
3.7978,-4.6258
3.7983,-9.5089
3.7988,-4.9310
3.7993,7.2768
3.7998,16.7378
3.8003,19.1794
3.8008,19.4846
3.8013,21.0105
3.8018,21.3157
3.8023,19.1794
3.8028,18.2638
3.8033,20.4001
3.8038,21.3157
3.8043,18.8742
3.8048,18.5690
3.8053,23.7573
3.8058,29.8612
3.8063,31.0819
3.8068,31.9975
3.8073,42.3741
3.8078,59.4650
3.8083,68.6209
3.8088,59.7702
3.8093,39.3222
3.8098,18.2638
3.8103,2.3937
3.8108,-9.8141
3.8113,-20.1907
3.8118,-29.6517
3.8123,-39.4180
3.8128,-49.4894
3.8133,-55.8985
3.8138,-54.9829
3.8143,-49.1842
3.8148,-42.7751
3.8153,-36.6712
3.8158,-29.6517
3.8163,-19.8855
3.8168,-8.5933
3.8173,3.3092
3.8178,13.0755
3.8183,19.1794
3.8188,21.6209
3.8193,24.0625
3.8198,28.3352
3.8203,31.9975
3.8208,32.3027
3.8213,31.9975
3.8218,36.2702
3.8223,45.7313
3.8228,54.5819
3.8233,56.7183
3.8238,53.6663
3.8243,50.9196
3.8248,50.3092
3.8253,48.1728
3.8258,42.3741
3.8263,36.2702
3.8268,32.6079
3.8273,32.3027
3.8278,34.4391
3.8283,40.5430
3.8288,47.5624
3.8293,50.0040
3.8298,45.7313
3.8303,40.8482
3.8308,38.7118
3.8313,33.5235
3.8318,20.0949
3.8323,5.1404
3.8328,-0.9635
3.8333,1.4781
3.8338,5.7508
3.8343,4.8352
3.8348,-2.4894
3.8353,-16.5284
3.8358,-28.4310
3.8363,-26.9050
3.8368,-14.3920
3.8373,-7.6778
3.8378,-12.2557
3.8383,-12.5609
3.8388,0.2573
3.8393,7.2768
3.8398,-4.0154
3.8403,-7.9829
3.8408,32.6079
3.8413,104.6338
3.8418,149.8026
3.8423,136.6792
3.8428,92.1208
3.8433,58.8546
3.8438,45.4261
3.8443,35.9650
3.8448,22.2313
3.8453,7.8872
3.8458,-5.2362
3.8463,-17.7492
3.8468,-26.2946
3.8473,-29.0414
3.8478,-30.2621
3.8483,-33.3141
3.8488,-33.9245
3.8493,-27.5154
3.8498,-17.1388
3.8503,-9.2037
3.8508,-2.7946
3.8513,4.8352
3.8518,15.5170
3.8523,26.1988
3.8528,30.1664
3.8533,22.5365
3.8538,4.8352
3.8543,-10.4245
3.8548,-11.9505
3.8553,-0.9635
3.8558,11.2443
3.8563,18.5690
3.8568,21.6209
3.8573,21.9261
3.8578,18.2638
3.8583,13.0755
3.8588,9.1079
3.8593,6.0560
3.8598,-1.8791
3.8603,-16.8336
3.8608,-33.0089
3.8613,-43.3855
3.8618,-46.1322
