"type","name","time_units","begin_time","frequency","count","units"
"signal","","s",0.0000,2000.3556,75600,"uV"

"time","value"
0.0000,-207.7665
0.0005,-177.2470
0.0010,-111.9354
0.0015,-44.1823
0.0020,-5.4226
0.0025,6.1748
0.0030,13.4995
0.0035,27.2332
0.0040,39.1358
0.0045,40.6618
0.0050,31.2008
0.0055,14.7203
0.0060,-3.2862
0.0065,-18.5459
0.0070,-31.3641
0.0075,-44.7927
0.0080,-54.2537
0.0085,-49.9810
0.0090,-29.8381
0.0095,-6.9485
0.0100,9.8371
0.0105,28.7592
0.0110,57.7527
0.0115,86.7461
0.0120,94.9864
0.0125,76.0643
0.0130,45.5449
0.0135,23.2657
0.0140,14.4151
0.0145,9.5319
0.0150,-1.4550
0.0155,-13.9680
0.0160,-13.9680
0.0165,0.3761
0.0170,6.7852
0.0175,-11.2213
0.0180,-44.1823
0.0185,-61.5783
0.0190,-51.5069
0.0195,-32.2797
0.0200,-24.0394
0.0205,-27.0914
0.0210,-26.7862
0.0215,-12.4420
0.0220,11.9735
0.0225,37.9150
0.0230,56.5319
0.0235,66.9085
0.0240,74.2332
0.0245,78.2007
0.0250,74.5384
0.0255,64.4669
0.0260,57.1423
0.0265,56.8371
0.0270,52.5644
0.0275,34.5579
0.0280,6.7852
0.0285,-20.3771
0.0290,-43.5719
0.0295,-60.9680
0.0300,-61.2732
0.0305,-40.5199
0.0310,-16.4096
0.0315,-11.8317
0.0320,-23.7342
0.0325,-26.7862
0.0330,-9.6953
0.0335,11.6683
0.0340,19.9086
0.0345,18.6878
0.0350,21.4345
0.0355,29.3696
0.0360,33.6423
0.0365,28.7592
0.0370,18.3826
0.0375,9.5319
0.0380,3.7333
0.0385,-0.2343
0.0390,-5.1174
0.0395,-8.7797
0.0400,-9.3901
0.0405,-8.4745
0.0410,-9.3901
0.0415,-12.4420
0.0420,-11.5265
0.0425,-4.8122
0.0430,0.3761
0.0435,-0.8447
0.0440,-6.0330
0.0445,-9.0849
0.0450,-10.9161
0.0455,-16.4096
0.0460,-24.3446
0.0465,-28.3122
0.0470,-26.7862
0.0475,-25.2602
0.0480,-27.3966
0.0485,-29.8381
0.0490,-29.2277
0.0495,-27.7018
0.0500,-28.3122
0.0505,-29.5329
0.0510,-27.7018
0.0515,-24.3446
0.0520,-21.9031
0.0525,-21.2927
0.0530,-20.6823
0.0535,-19.7667
0.0540,-18.8511
0.0545,-18.2407
0.0550,-17.3252
0.0555,-16.1044
0.0560,-14.5784
0.0565,-13.3576
0.0570,-12.7472
0.0575,-13.0524
0.0580,-13.3576
0.0585,-10.3057
0.0590,-3.5914
0.0595,0.9865
0.0600,0.3761
0.0605,-2.6758
0.0610,-1.1499
0.0615,4.6488
0.0620,9.2268
0.0625,14.1099
0.0630,28.7592
0.0635,52.2592
0.0640,67.2137
0.0645,62.0254
0.0650,47.6812
0.0655,42.1878
0.0660,46.1553
0.0665,45.8501
0.0670,40.0514
0.0675,39.1358
0.0680,42.1878
0.0685,36.3891
0.0690,20.8241
0.0695,14.4151
0.0700,25.0969
0.0705,32.1163
0.0710,11.6683
0.0715,-31.3641
0.0720,-73.4809
0.0725,-100.0328
0.0730,-112.8510
0.0735,-109.4939
0.0740,-80.8056
0.0745,-30.7537
0.0750,18.6878
0.0755,44.9345
0.0760,45.2397
0.0765,31.5059
0.0770,16.2462
0.0775,5.8696
0.0780,3.4281
0.0785,10.4475
0.0790,21.4345
0.0795,25.7073
0.0800,17.1618
0.0805,1.9021
0.0810,-10.0005
0.0815,-17.9355
0.0820,-27.3966
0.0825,-37.1628
0.0830,-32.8901
0.0835,-4.2018
0.0840,34.2527
0.0845,56.8371
0.0850,53.7851
0.0855,42.4929
0.0860,44.0189
0.0865,58.6682
0.0870,70.2656
0.0875,67.5189
0.0880,54.0903
0.0885,40.3566
0.0890,33.0319
0.0895,33.3371
0.0900,37.3046
0.0905,38.5254
0.0910,33.6423
0.0915,24.4865
0.0920,16.2462
0.0925,11.9735
0.0930,11.3631
0.0935,14.7203
0.0940,21.7397
0.0945,29.0644
0.0950,33.0319
0.0955,35.1683
0.0960,39.4410
0.0965,45.2397
0.0970,47.6812
0.0975,44.3241
0.0980,38.5254
0.0985,35.1683
0.0990,35.4735
0.0995,37.3046
0.1000,39.7462
0.1005,42.4929
0.1010,46.7657
0.1015,52.2592
0.1020,56.8371
0.1025,56.5319
0.1030,50.7332
0.1035,43.4085
0.1040,39.7462
0.1045,38.8306
0.1050,33.0319
0.1055,20.2138
0.1060,8.6164
0.1065,5.5644
0.1070,7.3956
0.1075,2.2073
0.1080,-13.3576
0.1085,-32.8901
0.1090,-49.3706
0.1095,-64.3251
0.1100,-82.3316
0.1105,-102.1692
0.1110,-116.2081
0.1115,-116.5133
0.1120,-100.9484
0.1125,-72.5653
0.1130,-37.4680
0.1135,-3.2862
0.1140,20.2138
0.1145,25.4021
0.1150,10.4475
0.1155,-15.4940
0.1160,-38.6888
0.1165,-47.5394
0.1170,-38.3836
0.1175,-18.8511
0.1180,-1.1499
0.1185,3.1229
0.1190,-5.1174
0.1195,-18.8511
0.1200,-28.0070
0.1205,-28.3122
0.1210,-20.3771
0.1215,-5.7278
0.1220,11.9735
0.1225,26.9280
0.1230,32.1163
0.1235,28.1488
0.1240,21.4345
0.1245,16.2462
0.1250,11.6683
0.1255,5.8696
0.1260,-1.1499
0.1265,-6.6434
0.1270,-7.8641
0.1275,-5.7278
0.1280,-2.6758
0.1285,-1.4550
0.1290,-2.3706
0.1295,-2.9810
0.1300,-3.5914
0.1305,-4.5070
0.1310,-6.0330
0.1315,-7.2537
0.1320,-7.2537
0.1325,-8.1693
0.1330,-11.2213
0.1335,-15.1888
0.1340,-17.3252
0.1345,-17.0200
0.1350,-15.7992
0.1355,-16.1044
0.1360,-18.5459
0.1365,-21.5979
0.1370,-23.1239
0.1375,-22.2083
0.1380,-20.6823
0.1385,-20.6823
0.1390,-21.2927
0.1395,-20.3771
0.1400,-17.6304
0.1405,-15.7992
0.1410,-16.1044
0.1415,-16.7148
0.1420,-16.1044
0.1425,-13.9680
0.1430,-11.8317
0.1435,-10.3057
0.1440,-9.3901
0.1445,-9.0849
0.1450,-8.1693
0.1455,-6.3382
0.1460,-3.5914
0.1465,-1.7602
0.1470,-2.3706
0.1475,-3.5914
0.1480,-4.5070
0.1485,-5.7278
0.1490,-9.6953
0.1495,-16.1044
0.1500,-22.5135
0.1505,-26.1758
0.1510,-26.1758
0.1515,-22.8187
0.1520,-17.9355
0.1525,-13.0524
0.1530,-9.0849
0.1535,-6.9485
0.1540,-8.7797
0.1545,-12.4420
0.1550,-16.1044
0.1555,-18.5459
0.1560,-21.5979
0.1565,-26.1758
0.1570,-28.3122
0.1575,-25.5654
0.1580,-19.7667
0.1585,-16.1044
0.1590,-16.7148
0.1595,-19.7667
0.1600,-22.5135
0.1605,-22.8187
0.1610,-19.7667
0.1615,-13.0524
0.1620,-5.4226
0.1625,0.9865
0.1630,5.5644
0.1635,7.7008
0.1640,6.1748
0.1645,2.8177
0.1650,3.1229
0.1655,8.6164
0.1660,14.7203
0.1665,15.9410
0.1670,11.9735
0.1675,8.6164
0.1680,7.7008
0.1685,6.1748
0.1690,3.1229
0.1695,0.9865
0.1700,0.0709
0.1705,-1.4550
0.1710,-3.8966
0.1715,-5.1174
0.1720,-2.6758
0.1725,1.9021
0.1730,8.0060
0.1735,14.1099
0.1740,19.2982
0.1745,20.5189
0.1750,17.7722
0.1755,15.0254
0.1760,13.8047
0.1765,12.5839
0.1770,9.5319
0.1775,4.9540
0.1780,0.6813
0.1785,-5.4226
0.1790,-15.7992
0.1795,-27.0914
0.1800,-35.9420
0.1805,-40.8251
0.1810,-42.9615
0.1815,-40.8251
0.1820,-32.2797
0.1825,-19.1563
0.1830,-6.9485
0.1835,0.0709
0.1840,2.8177
0.1845,4.6488
0.1850,6.1748
0.1855,6.1748
0.1860,5.2592
0.1865,4.9540
0.1870,5.2592
0.1875,5.5644
0.1880,4.6488
0.1885,2.5125
0.1890,0.0709
0.1895,-2.6758
0.1900,-2.3706
0.1905,1.5969
0.1910,8.3112
0.1915,12.8891
0.1920,13.4995
0.1925,12.8891
0.1930,15.0254
0.1935,19.6034
0.1940,22.0449
0.1945,19.2982
0.1950,12.5839
0.1955,5.5644
0.1960,0.3761
0.1965,-2.0654
0.1970,-2.0654
0.1975,2.8177
0.1980,15.6358
0.1985,34.2527
0.1990,52.5644
0.1995,63.2462
0.2000,65.3825
0.2005,63.2462
0.2010,60.4994
0.2015,55.9215
0.2020,49.2072
0.2025,43.4085
0.2030,39.1358
0.2035,31.2008
0.2040,16.8566
0.2045,-0.5395
0.2050,-15.1888
0.2055,-25.8706
0.2060,-35.0264
0.2065,-45.4030
0.2070,-60.9680
0.2075,-85.3835
0.2080,-110.4095
0.2085,-118.3445
0.2090,-100.3380
0.2095,-73.4809
0.2100,-62.7991
0.2105,-68.5978
0.2110,-70.7342
0.2115,-57.3056
0.2120,-39.6044
0.2125,-30.1433
0.2130,-26.1758
0.2135,-16.4096
0.2140,-1.7602
0.2145,7.3956
0.2150,8.6164
0.2155,5.8696
0.2160,3.1229
0.2165,1.2917
0.2170,1.2917
0.2175,5.8696
0.2180,12.8891
0.2185,18.9930
0.2190,22.3501
0.2195,24.7917
0.2200,26.9280
0.2205,27.8436
0.2210,27.8436
0.2215,28.7592
0.2220,30.5904
0.2225,32.1163
0.2230,33.0319
0.2235,34.2527
0.2240,36.6943
0.2245,37.9150
0.2250,36.3891
0.2255,33.0319
0.2260,30.8956
0.2265,31.2008
0.2270,31.2008
0.2275,29.9800
0.2280,27.8436
0.2285,28.1488
0.2290,30.2852
0.2295,32.1163
0.2300,31.5059
0.2305,29.9800
0.2310,29.6748
0.2315,30.8956
0.2320,31.5059
0.2325,29.9800
0.2330,27.8436
0.2335,26.3176
0.2340,25.7073
0.2345,24.1813
0.2350,21.4345
0.2355,19.2982
0.2360,19.2982
0.2365,19.9086
0.2370,19.6034
0.2375,18.3826
0.2380,18.3826
0.2385,19.6034
0.2390,20.2138
0.2395,18.3826
0.2400,14.7203
0.2405,10.7527
0.2410,7.7008
0.2415,5.2592
0.2420,1.9021
0.2425,-2.9810
0.2430,-8.7797
0.2435,-12.4420
0.2440,-12.7472
0.2445,-11.2213
0.2450,-9.6953
0.2455,-8.4745
0.2460,-6.6434
0.2465,-5.7278
0.2470,-7.5589
0.2475,-11.8317
0.2480,-15.7992
0.2485,-17.9355
0.2490,-17.3252
0.2495,-14.2732
0.2500,-8.1693
0.2505,0.0709
0.2510,6.4800
0.2515,8.6164
0.2520,6.7852
0.2525,5.8696
0.2530,8.6164
0.2535,13.8047
0.2540,18.3826
0.2545,20.2138
0.2550,21.1293
0.2555,23.5709
0.2560,26.6228
0.2565,27.2332
0.2570,24.7917
0.2575,22.0449
0.2580,21.4345
0.2585,21.7397
0.2590,20.2138
0.2595,17.4670
0.2600,15.9410
0.2605,15.3306
0.2610,13.4995
0.2615,8.9216
0.2620,4.0384
0.2625,0.3761
0.2630,-2.3706
0.2635,-5.4226
0.2640,-8.1693
0.2645,-10.0005
0.2650,-10.9161
0.2655,-11.8317
0.2660,-12.4420
0.2665,-12.4420
0.2670,-13.6628
0.2675,-16.1044
0.2680,-17.9355
0.2685,-18.2407
0.2690,-18.8511
0.2695,-19.7667
0.2700,-19.7667
0.2705,-16.4096
0.2710,-12.4420
0.2715,-10.6109
0.2720,-11.2213
0.2725,-10.9161
0.2730,-9.0849
0.2735,-8.7797
0.2740,-10.6109
0.2745,-12.1369
0.2750,-11.2213
0.2755,-9.0849
0.2760,-6.9485
0.2765,-5.7278
0.2770,-5.4226
0.2775,-5.7278
0.2780,-5.4226
0.2785,-3.8966
0.2790,-2.0654
0.2795,-1.4550
0.2800,-1.4550
0.2805,0.3761
0.2810,3.4281
0.2814,5.8696
0.2819,6.7852
0.2824,8.0060
0.2829,9.5319
0.2834,9.5319
0.2839,7.3956
0.2844,4.9540
0.2849,3.1229
0.2854,-0.5395
0.2859,-7.5589
0.2864,-13.3576
0.2869,-14.2732
0.2874,-12.4420
0.2879,-11.5265
0.2884,-13.0524
0.2889,-15.7992
0.2894,-18.5459
0.2899,-20.6823
0.2904,-21.9031
0.2909,-21.5979
0.2914,-21.2927
0.2919,-21.9031
0.2924,-23.7342
0.2929,-24.9550
0.2934,-24.6498
0.2939,-21.9031
0.2944,-16.4096
0.2949,-8.4745
0.2954,-1.7602
0.2959,0.9865
0.2964,0.9865
0.2969,1.5969
0.2974,2.5125
0.2979,2.5125
0.2984,1.5969
0.2989,2.5125
0.2994,6.4800
0.2999,9.2268
0.3004,7.7008
0.3009,4.0384
0.3014,2.2073
0.3019,2.2073
0.3024,1.5969
0.3029,0.3761
0.3034,0.3761
0.3039,1.2917
0.3044,0.3761
0.3049,-0.5395
0.3054,0.6813
0.3059,4.6488
0.3064,8.3112
0.3069,9.5319
0.3074,10.4475
0.3079,11.6683
0.3084,11.9735
0.3089,10.1423
0.3094,9.5319
0.3099,10.4475
0.3104,9.5319
0.3109,6.1748
0.3114,3.1229
0.3119,3.1229
0.3124,3.7333
0.3129,2.5125
0.3134,1.2917
0.3139,2.5125
0.3144,4.6488
0.3149,4.6488
0.3154,2.5125
0.3159,-0.2343
0.3164,-7.5589
0.3169,-19.7667
0.3174,-32.2797
0.3179,-38.3836
0.3184,-38.0784
0.3189,-37.1628
0.3194,-37.7732
0.3199,-36.5524
0.3204,-31.0589
0.3209,-23.1239
0.3214,-16.1044
0.3219,-11.5265
0.3224,-9.6953
0.3229,-10.0005
0.3234,-9.6953
0.3239,-6.9485
0.3244,-2.9810
0.3249,0.0709
0.3254,1.2917
0.3259,3.1229
0.3264,4.9540
0.3269,6.1748
0.3274,6.4800
0.3279,8.0060
0.3284,9.8371
0.3289,10.1423
0.3294,9.5319
0.3299,10.7527
0.3304,12.8891
0.3309,13.1943
0.3314,11.9735
0.3319,12.2787
0.3324,14.1099
0.3329,13.4995
0.3334,9.5319
0.3339,6.1748
0.3344,5.8696
0.3349,6.4800
0.3354,4.9540
0.3359,1.9021
0.3364,0.3761
0.3369,0.9865
0.3374,2.5125
0.3379,4.0384
0.3384,4.3436
0.3389,3.1229
0.3394,0.9865
0.3399,0.3761
0.3404,0.6813
0.3409,-0.5395
0.3414,-4.2018
0.3419,-6.3382
0.3424,-7.2537
0.3429,-10.9161
0.3434,-18.5459
0.3439,-24.3446
0.3444,-23.7342
0.3449,-20.0719
0.3454,-19.4615
0.3459,-22.8187
0.3464,-25.5654
0.3469,-25.8706
0.3474,-25.2602
0.3479,-24.9550
0.3484,-24.0394
0.3489,-24.3446
0.3494,-26.7862
0.3499,-29.8381
0.3504,-30.7537
0.3509,-29.2277
0.3514,-25.8706
0.3519,-19.4615
0.3524,-7.5589
0.3529,5.5644
0.3534,13.4995
0.3539,12.5839
0.3544,7.3956
0.3549,3.4281
0.3554,1.9021
0.3559,1.5969
0.3564,2.8177
0.3569,6.4800
0.3574,10.4475
0.3579,13.1943
0.3584,15.6358
0.3589,18.0774
0.3594,19.9086
0.3599,18.3826
0.3604,15.3306
0.3609,13.8047
0.3614,15.0254
0.3619,18.6878
0.3624,22.3501
0.3629,25.7073
0.3634,27.8436
0.3639,29.0644
0.3644,29.3696
0.3649,29.6748
0.3654,30.2852
0.3659,31.5059
0.3664,33.6423
0.3669,35.7787
0.3674,36.3891
0.3679,34.8631
0.3684,33.0319
0.3689,31.8111
0.3694,30.8956
0.3699,30.2852
0.3704,29.9800
0.3709,30.2852
0.3714,29.9800
0.3719,28.1488
0.3724,25.0969
0.3729,21.4345
0.3734,16.8566
0.3739,11.3631
0.3744,6.1748
0.3749,1.9021
0.3754,-1.1499
0.3759,-2.0654
0.3764,1.2917
0.3769,8.9216
0.3774,15.3306
0.3779,16.2462
0.3784,13.4995
0.3789,12.5839
0.3794,13.8047
0.3799,12.5839
0.3804,6.4800
0.3809,-1.7602
0.3814,-8.7797
0.3819,-14.2732
0.3824,-19.7667
0.3829,-23.7342
0.3834,-23.4290
0.3839,-17.9355
0.3844,-10.6109
0.3849,-5.1174
0.3854,-2.6758
0.3859,-1.4550
0.3864,0.3761
0.3869,3.4281
0.3874,5.2592
0.3879,5.8696
0.3884,6.7852
0.3889,9.5319
0.3894,11.9735
0.3899,12.2787
0.3904,11.6683
0.3909,12.5839
0.3914,15.0254
0.3919,16.5514
0.3924,15.3306
0.3929,11.6683
0.3934,7.7008
0.3939,4.9540
0.3944,4.3436
0.3949,4.3436
0.3954,3.4281
0.3959,1.2917
0.3964,-0.8447
0.3969,-1.4550
0.3974,0.0709
0.3979,0.9865
0.3984,2.2073
0.3989,3.7333
0.3994,6.4800
0.3999,7.7008
0.4004,5.5644
0.4009,0.6813
0.4014,-3.5914
0.4019,-5.4226
0.4024,-6.9485
0.4029,-9.6953
0.4034,-13.6628
0.4039,-16.1044
0.4044,-17.3252
0.4049,-20.3771
0.4054,-24.9550
0.4059,-28.0070
0.4064,-26.4810
0.4069,-23.7342
0.4074,-24.0394
0.4079,-26.7862
0.4084,-28.9225
0.4089,-28.3122
0.4094,-26.4810
0.4099,-23.7342
0.4104,-19.4615
0.4109,-14.8836
0.4114,-12.4420
0.4119,-11.2213
0.4124,-7.8641
0.4129,-2.6758
0.4134,0.6813
0.4139,0.3761
0.4144,-1.1499
0.4149,-2.0654
0.4154,-1.1499
0.4159,0.9865
0.4164,4.0384
0.4169,6.4800
0.4174,5.8696
0.4179,3.1229
0.4184,1.9021
0.4189,2.5125
0.4194,2.2073
0.4199,0.3761
0.4204,-1.7602
0.4209,-2.0654
0.4214,-2.6758
0.4219,-4.5070
0.4224,-6.6434
0.4229,-7.5589
0.4234,-7.2537
0.4239,-7.8641
0.4244,-7.5589
0.4249,-3.8966
0.4254,1.9021
0.4259,5.8696
0.4264,4.0384
0.4269,-0.5395
0.4274,-4.8122
0.4279,-6.6434
0.4284,-6.9485
0.4289,-7.5589
0.4294,-8.7797
0.4299,-8.7797
0.4304,-6.0330
0.4309,-1.1499
0.4314,2.5125
0.4319,3.7333
0.4324,3.7333
0.4329,3.1229
0.4334,1.5969
0.4339,-0.8447
0.4344,-3.8966
0.4349,-5.7278
0.4354,-7.2537
0.4359,-10.3057
0.4364,-13.9680
0.4369,-17.3252
0.4374,-20.0719
0.4379,-21.5979
0.4384,-19.7667
0.4389,-14.2732
0.4394,-9.3901
0.4399,-9.0849
0.4404,-12.7472
0.4409,-16.4096
0.4414,-16.7148
0.4419,-14.8836
0.4424,-13.3576
0.4429,-11.8317
0.4434,-9.6953
0.4439,-6.6434
0.4444,-4.2018
0.4449,-2.9810
0.4454,-2.0654
0.4459,-1.1499
0.4464,0.3761
0.4469,2.2073
0.4474,3.4281
0.4479,4.9540
0.4484,8.3112
0.4489,11.9735
0.4494,13.1943
0.4499,11.6683
0.4504,8.9216
0.4509,7.0904
0.4514,6.4800
0.4519,7.0904
0.4524,7.7008
0.4529,7.7008
0.4534,7.0904
0.4539,6.1748
0.4544,5.5644
0.4549,4.6488
0.4554,4.0384
0.4559,5.2592
0.4564,8.0060
0.4569,10.1423
0.4574,10.1423
0.4579,10.1423
0.4584,11.9735
0.4589,12.8891
0.4594,11.6683
0.4599,9.8371
0.4604,10.4475
0.4609,11.6683
0.4614,9.8371
0.4619,6.4800
0.4624,5.8696
0.4629,7.3956
0.4634,7.7008
0.4639,4.6488
0.4644,2.2073
0.4649,1.5969
0.4654,0.6813
0.4659,-1.4550
0.4664,-1.1499
0.4669,2.8177
0.4674,6.4800
0.4679,4.6488
0.4684,0.3761
0.4689,-1.4550
0.4694,0.3761
0.4699,3.1229
0.4704,4.6488
0.4709,6.4800
0.4714,8.6164
0.4719,7.0904
0.4724,0.3761
0.4729,-8.7797
0.4734,-16.4096
0.4739,-20.6823
0.4744,-22.8187
0.4749,-24.0394
0.4754,-22.2083
0.4759,-16.7148
0.4764,-9.3901
0.4769,-2.9810
0.4774,0.9865
0.4779,2.8177
0.4784,3.7333
0.4789,3.7333
0.4794,3.7333
0.4799,4.0384
0.4804,5.8696
0.4809,8.0060
0.4814,9.8371
0.4819,10.1423
0.4824,8.9216
0.4829,6.4800
0.4834,4.0384
0.4839,2.2073
0.4844,0.6813
0.4849,0.3761
0.4854,1.2917
0.4859,3.7333
0.4864,4.9540
0.4869,3.4281
0.4874,1.2917
0.4879,1.9021
0.4884,6.1748
0.4889,10.1423
0.4894,11.3631
0.4899,9.8371
0.4904,7.3956
0.4909,4.6488
0.4914,2.2073
0.4919,3.1229
0.4924,8.3112
0.4929,15.0254
0.4934,19.9086
0.4939,23.2657
0.4944,25.7073
0.4949,26.0124
0.4954,22.0449
0.4959,13.8047
0.4964,4.0384
0.4969,-5.4226
0.4974,-15.4940
0.4979,-24.0394
0.4984,-28.3122
0.4989,-28.3122
0.4994,-27.0914
0.4999,-27.3966
0.5004,-28.9225
0.5009,-28.9225
0.5014,-24.3446
0.5019,-15.7992
0.5024,-7.5589
0.5029,-2.9810
0.5034,-1.1499
0.5039,0.9865
0.5044,5.2592
0.5049,9.2268
0.5054,11.3631
0.5059,13.8047
0.5064,15.9410
0.5069,14.7203
0.5074,8.6164
0.5079,0.6813
0.5084,-5.1174
0.5089,-9.0849
0.5094,-12.1369
0.5099,-13.3576
0.5104,-11.2213
0.5109,-6.0330
0.5114,-1.1499
0.5119,1.2917
0.5124,2.8177
0.5129,3.4281
0.5134,4.0384
0.5139,6.1748
0.5144,8.9216
0.5149,8.9216
0.5154,5.2592
0.5159,0.6813
0.5164,-0.5395
0.5169,0.3761
0.5174,1.5969
0.5179,1.5969
0.5184,1.5969
0.5189,2.2073
0.5194,4.0384
0.5199,6.7852
0.5204,8.9216
0.5209,7.7008
0.5214,2.8177
0.5219,-1.7602
0.5224,-2.3706
0.5229,-0.2343
0.5234,2.5125
0.5239,5.5644
0.5244,8.6164
0.5249,10.1423
0.5254,8.6164
0.5259,6.7852
0.5264,7.7008
0.5269,9.5319
0.5274,9.2268
0.5279,8.3112
0.5284,10.7527
0.5289,14.7203
0.5294,16.5514
0.5299,14.4151
0.5304,12.5839
0.5309,12.5839
0.5314,11.3631
0.5319,7.3956
0.5324,3.1229
0.5329,1.9021
0.5334,2.2073
0.5339,1.2917
0.5344,0.3761
0.5349,1.2917
0.5354,4.6488
0.5359,8.3112
0.5364,10.7527
0.5369,11.0579
0.5374,8.0060
0.5379,3.1229
0.5384,-0.8447
0.5389,-2.9810
0.5394,-3.2862
0.5399,-3.2862
0.5404,-3.5914
0.5409,-3.8966
0.5414,-4.8122
0.5419,-6.3382
0.5424,-8.7797
0.5429,-13.6628
0.5434,-20.9875
0.5439,-26.4810
0.5444,-25.5654
0.5449,-18.5459
0.5454,-11.5265
0.5459,-7.8641
0.5464,-5.1174
0.5469,0.6813
0.5474,9.5319
0.5479,16.5514
0.5484,17.7722
0.5489,14.1099
0.5494,9.5319
0.5499,7.0904
0.5504,8.3112
0.5509,11.0579
0.5514,12.2787
0.5519,10.7527
0.5524,8.3112
0.5529,7.0904
0.5534,5.8696
0.5539,3.7333
0.5544,1.5969
0.5549,-0.2343
0.5554,-4.2018
0.5559,-10.9161
0.5564,-19.4615
0.5569,-26.1758
0.5574,-28.9225
0.5579,-28.0070
0.5584,-25.2602
0.5589,-21.9031
0.5594,-20.0719
0.5599,-19.1563
0.5604,-17.9355
0.5609,-14.2732
0.5614,-8.4745
0.5619,-3.2862
0.5624,0.6813
0.5629,5.5644
0.5634,12.2787
0.5639,18.3826
0.5644,22.0449
0.5649,22.6553
0.5654,21.7397
0.5659,21.4345
0.5664,22.9605
0.5669,24.7917
0.5674,24.4865
0.5679,19.9086
0.5684,13.8047
0.5689,9.5319
0.5694,6.4800
0.5699,1.9021
0.5704,-4.2018
0.5709,-8.1693
0.5714,-8.1693
0.5719,-7.5589
0.5724,-9.6953
0.5729,-13.0524
0.5734,-11.8317
0.5739,-5.4226
0.5744,0.0709
0.5749,-1.1499
0.5754,-5.7278
0.5759,-6.9485
0.5764,-2.3706
0.5769,3.4281
0.5774,5.8696
0.5779,4.3436
0.5784,3.1229
0.5789,3.4281
0.5794,1.9021
0.5799,-2.9810
0.5804,-7.2537
0.5809,-5.4226
0.5814,1.9021
0.5819,8.6164
0.5824,10.1423
0.5829,9.2268
0.5834,8.9216
0.5839,8.3112
0.5844,5.8696
0.5849,3.4281
0.5854,3.4281
0.5859,4.6488
0.5864,2.2073
0.5869,-2.6758
0.5874,-6.3382
0.5879,-5.4226
0.5884,-2.3706
0.5889,0.6813
0.5894,4.0384
0.5899,6.7852
0.5904,6.7852
0.5909,2.8177
0.5914,-2.0654
0.5919,-3.8966
0.5924,-1.4550
0.5929,1.9021
0.5934,3.7333
0.5939,3.7333
0.5944,4.0384
0.5949,5.2592
0.5954,5.8696
0.5959,5.2592
0.5964,4.0384
0.5969,4.0384
0.5974,4.3436
0.5979,3.4281
0.5984,0.9865
0.5989,-1.4550
0.5994,-2.9810
0.5999,-2.9810
0.6004,-1.7602
0.6009,-0.8447
0.6014,-0.2343
0.6019,-0.5395
0.6024,-1.7602
0.6029,-1.7602
0.6034,-1.1499
0.6039,-1.4550
0.6044,-3.2862
0.6049,-5.1174
0.6054,-4.8122
0.6059,-3.5914
0.6064,-3.5914
0.6069,-4.5070
0.6074,-3.5914
0.6079,-0.8447
0.6084,0.9865
0.6089,0.6813
0.6094,-1.7602
0.6099,-4.2018
0.6104,-3.8966
0.6109,-1.4550
0.6114,0.3761
0.6119,-1.1499
0.6124,-5.4226
0.6129,-9.3901
0.6134,-11.5265
0.6139,-12.4420
0.6144,-12.4420
0.6149,-10.9161
0.6154,-7.8641
0.6159,-5.4226
0.6164,-5.7278
0.6169,-6.6434
0.6174,-4.5070
0.6179,0.6813
0.6184,8.6164
0.6189,16.2462
0.6194,22.9605
0.6199,27.8436
0.6204,30.5904
0.6209,31.2008
0.6214,30.2852
0.6219,26.9280
0.6224,20.5189
0.6229,13.8047
0.6234,10.1423
0.6239,8.6164
0.6244,5.2592
0.6249,-1.4550
0.6254,-9.0849
0.6259,-12.1369
0.6264,-10.9161
0.6269,-9.3901
0.6274,-11.8317
0.6279,-17.3252
0.6284,-20.3771
0.6289,-19.4615
0.6294,-17.6304
0.6299,-20.9875
0.6304,-29.5329
0.6309,-36.8576
0.6314,-37.7732
0.6319,-33.8057
0.6324,-30.7537
0.6329,-30.4485
0.6334,-31.3641
0.6339,-31.3641
0.6344,-30.7537
0.6349,-27.3966
0.6354,-19.4615
0.6359,-10.6109
0.6364,-6.0330
0.6369,-9.0849
0.6374,-16.1044
0.6379,-22.5135
0.6384,-26.4810
0.6389,-27.3966
0.6394,-24.6498
0.6399,-17.6304
0.6404,-7.8641
0.6409,1.5969
0.6414,8.3112
0.6419,10.7527
0.6424,9.2268
0.6429,7.3956
0.6434,6.1748
0.6439,4.3436
0.6444,-0.2343
0.6449,-5.7278
0.6454,-6.3382
0.6459,0.0709
0.6464,7.7008
0.6469,11.6683
0.6474,11.6683
0.6479,11.3631
0.6484,13.8047
0.6489,17.7722
0.6494,20.8241
0.6499,22.3501
0.6504,23.5709
0.6509,26.3176
0.6514,28.7592
0.6519,28.1488
0.6524,24.1813
0.6529,20.8241
0.6534,19.9086
0.6539,21.4345
0.6544,22.3501
0.6549,20.8241
0.6554,16.2462
0.6559,10.7527
0.6564,7.3956
0.6569,8.9216
0.6574,11.9735
0.6579,11.6683
0.6584,6.7852
0.6589,0.6813
0.6594,-2.6758
0.6599,-3.2862
0.6604,-2.6758
0.6609,-1.4550
0.6614,-0.5395
0.6619,-1.7602
0.6624,-3.5914
0.6629,-2.9810
0.6634,-0.5395
0.6639,0.9865
0.6644,0.6813
0.6649,1.5969
0.6654,5.8696
0.6659,12.2787
0.6664,17.4670
0.6669,21.7397
0.6674,25.0969
0.6679,26.0124
0.6684,24.4865
0.6689,22.6553
0.6694,22.3501
0.6699,23.2657
0.6704,23.2657
0.6709,22.3501
0.6714,21.4345
0.6719,20.8241
0.6724,20.5189
0.6729,20.2138
0.6734,17.1618
0.6739,8.9216
0.6744,-2.6758
0.6749,-11.2213
0.6754,-11.8317
0.6759,-7.5589
0.6764,-4.8122
0.6769,-4.8122
0.6774,-5.1174
0.6779,-3.2862
0.6784,-1.4550
0.6789,-1.7602
0.6794,-3.5914
0.6799,-6.0330
0.6804,-7.8641
0.6809,-8.7797
0.6814,-7.2537
0.6819,-5.4226
0.6824,-6.9485
0.6829,-13.3576
0.6834,-20.0719
0.6839,-21.2927
0.6844,-16.1044
0.6849,-10.3057
0.6854,-7.8641
0.6859,-6.3382
0.6864,-3.2862
0.6869,0.9865
0.6874,3.1229
0.6879,2.8177
0.6884,1.5969
0.6889,0.9865
0.6894,0.3761
0.6899,-1.7602
0.6904,-4.2018
0.6909,-6.3382
0.6914,-6.9485
0.6919,-6.9485
0.6924,-8.7797
0.6929,-13.0524
0.6934,-17.9355
0.6939,-18.8511
0.6944,-14.8836
0.6949,-9.6953
0.6954,-7.8641
0.6959,-10.0005
0.6964,-12.1369
0.6969,-11.8317
0.6974,-8.4745
0.6979,-3.5914
0.6984,1.5969
0.6989,5.5644
0.6994,6.4800
0.6999,5.2592
0.7004,4.3436
0.7009,4.6488
0.7014,4.3436
0.7019,1.5969
0.7024,-1.1499
0.7029,-1.4550
0.7034,2.2073
0.7039,7.3956
0.7044,10.1423
0.7049,9.8371
0.7054,8.3112
0.7059,7.0904
0.7064,6.7852
0.7069,6.7852
0.7074,5.8696
0.7079,3.7333
0.7084,2.5125
0.7089,3.4281
0.7094,5.8696
0.7099,6.1748
0.7104,4.0384
0.7109,1.9021
0.7114,2.8177
0.7119,4.6488
0.7124,4.0384
0.7129,2.2073
0.7134,2.5125
0.7139,4.0384
0.7144,2.8177
0.7149,-2.3706
0.7154,-9.0849
0.7159,-13.0524
0.7164,-13.3576
0.7169,-11.2213
0.7174,-6.9485
0.7179,-0.8447
0.7184,3.7333
0.7189,4.3436
0.7194,-0.2343
0.7199,-8.7797
0.7204,-16.1044
0.7209,-18.5459
0.7214,-17.0200
0.7219,-16.7148
0.7224,-20.9875
0.7229,-27.7018
0.7234,-32.2797
0.7239,-32.5849
0.7244,-28.3122
0.7249,-19.1563
0.7254,-9.0849
0.7259,-4.2018
0.7264,-6.3382
0.7269,-10.3057
0.7274,-13.0524
0.7279,-17.6304
0.7284,-24.9550
0.7289,-27.0914
0.7294,-17.3252
0.7299,-0.5395
0.7304,10.1423
0.7309,11.3631
0.7314,9.2268
0.7319,8.9216
0.7324,5.8696
0.7329,-3.2862
0.7334,-15.4940
0.7339,-24.0394
0.7344,-26.1758
0.7349,-24.0394
0.7354,-19.7667
0.7359,-14.5784
0.7364,-10.9161
0.7369,-9.6953
0.7374,-11.5265
0.7379,-14.5784
0.7384,-16.1044
0.7389,-13.0524
0.7394,-5.4226
0.7399,2.5125
0.7404,9.5319
0.7409,17.1618
0.7414,27.8436
0.7419,38.8306
0.7424,44.6293
0.7429,44.0189
0.7434,40.0514
0.7439,33.9475
0.7444,25.4021
0.7449,16.8566
0.7454,12.5839
0.7459,13.4995
0.7464,16.2462
0.7469,17.4670
0.7474,17.1618
0.7479,15.3306
0.7484,12.8891
0.7489,10.7527
0.7494,11.0579
0.7499,12.2787
0.7504,12.5839
0.7509,11.6683
0.7514,11.6683
0.7519,13.1943
0.7524,14.4151
0.7529,16.2462
0.7534,18.0774
0.7539,18.6878
0.7544,15.9410
0.7549,12.2787
0.7554,10.4475
0.7559,11.3631
0.7564,11.6683
0.7569,11.9735
0.7574,14.4151
0.7579,18.6878
0.7584,20.8241
0.7589,20.2138
0.7594,19.6034
0.7599,20.5189
0.7604,20.8241
0.7609,18.9930
0.7614,16.8566
0.7619,15.0254
0.7624,14.1099
0.7629,13.8047
0.7634,13.4995
0.7639,12.2787
0.7644,8.9216
0.7649,4.6488
0.7654,0.6813
0.7659,-3.8966
0.7664,-11.8317
0.7669,-20.3771
0.7674,-25.2602
0.7679,-24.9550
0.7684,-24.0394
0.7689,-26.4810
0.7694,-31.9745
0.7699,-38.3836
0.7704,-43.8771
0.7709,-48.4550
0.7714,-52.7277
0.7719,-58.5264
0.7724,-62.4939
0.7729,-57.9160
0.7734,-43.8771
0.7739,-27.0914
0.7744,-17.6304
0.7749,-14.8836
0.7754,-12.1369
0.7759,-5.7278
0.7764,1.5969
0.7769,9.8371
0.7774,18.9930
0.7779,25.4021
0.7784,22.9605
0.7789,12.5839
0.7794,4.6488
0.7799,4.3436
0.7804,7.3956
0.7809,8.3112
0.7814,7.7008
0.7819,10.1423
0.7824,13.8047
0.7829,15.9410
0.7834,20.2138
0.7839,28.1488
0.7844,33.6423
0.7849,30.2852
0.7854,20.2138
0.7859,13.4995
0.7864,13.4995
0.7869,15.3306
0.7874,14.7203
0.7879,14.1099
0.7884,17.4670
0.7889,22.9605
0.7894,26.6228
0.7899,26.0124
0.7904,23.2657
0.7909,21.1293
0.7914,21.4345
0.7919,22.0449
0.7924,19.6034
0.7929,12.8891
0.7934,7.3956
0.7939,7.0904
0.7944,9.2268
0.7949,6.4800
0.7954,-3.5914
0.7959,-15.7992
0.7964,-24.0394
0.7969,-28.9225
0.7974,-34.1109
0.7979,-40.2147
0.7984,-44.7927
0.7989,-45.4030
0.7994,-43.8771
0.7999,-42.9615
0.8004,-42.9615
0.8009,-40.5199
0.8014,-33.5005
0.8019,-24.3446
0.8024,-17.3252
0.8029,-14.8836
0.8034,-12.7472
0.8039,-6.3382
0.8044,2.8177
0.8049,9.8371
0.8054,11.6683
0.8059,10.4475
0.8064,9.8371
0.8069,10.7527
0.8074,12.5839
0.8079,15.9410
0.8084,18.3826
0.8089,18.3826
0.8094,16.5514
0.8099,15.3306
0.8104,15.6358
0.8109,15.9410
0.8114,14.1099
0.8119,11.9735
0.8124,10.7527
0.8129,10.7527
0.8134,11.3631
0.8139,12.2787
0.8144,13.1943
0.8149,12.5839
0.8154,11.9735
0.8159,12.2787
0.8164,13.8047
0.8169,14.1099
0.8174,11.9735
0.8179,10.1423
0.8184,10.7527
0.8189,12.5839
0.8194,13.8047
0.8199,14.4151
0.8204,15.9410
0.8209,17.1618
0.8214,16.8566
0.8219,17.7722
0.8224,23.8761
0.8229,35.4735
0.8234,45.8501
0.8239,48.5968
0.8244,44.6293
0.8249,40.6618
0.8254,40.6618
0.8259,42.4929
0.8264,43.4085
0.8269,41.5774
0.8274,36.9994
0.8279,29.0644
0.8284,19.6034
0.8289,11.9735
0.8294,7.0904
0.8299,1.9021
0.8304,-6.0330
0.8309,-18.5459
0.8314,-37.7732
0.8319,-64.6303
0.8324,-91.7926
0.8329,-102.1692
0.8334,-86.9095
0.8339,-59.4420
0.8344,-44.1823
0.8349,-48.1498
0.8354,-57.9160
0.8359,-60.0524
0.8364,-56.6952
0.8369,-54.5589
0.8374,-51.8121
0.8379,-45.4030
0.8384,-36.5524
0.8389,-23.4290
0.8394,3.4281
0.8399,47.3761
0.8404,87.3565
0.8409,98.0383
0.8414,79.7267
0.8419,58.9734
0.8424,53.4799
0.8429,54.7007
0.8434,47.9864
0.8438,34.2527
0.8443,20.8241
0.8448,2.5125
0.8453,-26.7862
0.8458,-58.2212
0.8463,-73.4809
0.8468,-72.2602
0.8473,-71.3446
0.8478,-79.5848
0.8483,-88.1303
0.8488,-89.3510
0.8493,-93.0134
0.8498,-107.6627
0.8503,-124.1432
0.8508,-125.9744
0.8513,-112.8510
0.8518,-97.5913
0.8523,-86.6043
0.8528,-74.0913
0.8533,-54.2537
0.8538,-29.5329
0.8543,-5.4226
0.8548,15.3306
0.8553,33.0319
0.8558,45.5449
0.8563,51.9540
0.8568,53.4799
0.8573,50.7332
0.8578,45.8501
0.8583,41.8826
0.8588,41.8826
0.8593,44.9345
0.8598,47.9864
0.8603,50.1228
0.8608,52.2592
0.8613,53.4799
0.8618,51.6488
0.8623,47.6812
0.8628,44.3241
0.8633,41.8826
0.8638,38.8306
0.8643,35.4735
0.8648,34.2527
0.8653,33.9475
0.8658,32.1163
0.8663,29.6748
0.8668,28.4540
0.8673,29.6748
0.8678,30.5904
0.8683,29.3696
0.8688,27.5384
0.8693,27.8436
0.8698,29.0644
0.8703,27.8436
0.8708,23.2657
0.8713,16.5514
0.8718,11.3631
0.8723,10.4475
0.8728,13.4995
0.8733,17.7722
0.8738,18.9930
0.8743,16.5514
0.8748,11.9735
0.8753,7.0904
0.8758,3.7333
0.8763,4.0384
0.8768,8.6164
0.8773,14.1099
0.8778,15.9410
0.8783,13.8047
0.8788,9.5319
0.8793,5.2592
0.8798,-0.2343
0.8803,-6.6434
0.8808,-9.0849
0.8813,-5.1174
0.8818,1.5969
0.8823,5.5644
0.8828,4.0384
0.8833,-0.5395
0.8838,-6.3382
0.8843,-10.3057
0.8848,-11.8317
0.8853,-9.3901
0.8858,-5.4226
0.8863,-2.9810
0.8868,-3.8966
0.8873,-4.8122
0.8878,-2.3706
0.8883,2.2073
0.8888,6.1748
0.8893,6.7852
0.8898,6.4800
0.8903,7.7008
0.8908,10.1423
0.8913,11.3631
0.8918,10.7527
0.8923,9.8371
0.8928,10.4475
0.8933,11.6683
0.8938,12.8891
0.8943,14.4151
0.8948,15.6358
0.8953,15.6358
0.8958,11.9735
0.8963,5.2592
0.8968,-2.6758
0.8973,-12.1369
0.8978,-22.2083
0.8983,-30.4485
0.8988,-35.9420
0.8993,-41.1303
0.8998,-49.3706
0.9003,-57.0004
0.9008,-58.2212
0.9013,-52.4225
0.9018,-45.7082
0.9023,-42.9615
0.9028,-42.0459
0.9033,-41.4355
0.9038,-44.7927
0.9043,-54.5589
0.9048,-64.0199
0.9053,-63.4095
0.9058,-52.1173
0.9063,-39.6044
0.9068,-31.9745
0.9073,-25.5654
0.9078,-14.5784
0.9083,0.3761
0.9088,13.4995
0.9093,21.7397
0.9098,26.0124
0.9103,28.1488
0.9108,28.4540
0.9113,26.9280
0.9118,25.7073
0.9123,25.7073
0.9128,25.4021
0.9133,22.6553
0.9138,16.2462
0.9143,5.8696
0.9148,-6.6434
0.9153,-17.6304
0.9158,-21.5979
0.9163,-18.8511
0.9168,-14.2732
0.9173,-11.8317
0.9178,-10.9161
0.9183,-8.1693
0.9188,-4.5070
0.9193,-3.2862
0.9198,-5.4226
0.9203,-8.1693
0.9208,-9.0849
0.9213,-7.8641
0.9218,-4.2018
0.9223,1.9021
0.9228,10.7527
0.9233,17.7722
0.9238,20.2138
0.9243,18.6878
0.9248,16.2462
0.9253,15.3306
0.9258,17.1618
0.9263,20.2138
0.9268,22.6553
0.9273,21.4345
0.9278,17.7722
0.9283,15.3306
0.9288,15.0254
0.9293,13.8047
0.9298,10.7527
0.9303,8.6164
0.9308,11.6683
0.9313,18.0774
0.9318,22.6553
0.9323,21.7397
0.9328,17.4670
0.9333,12.2787
0.9338,8.0060
0.9343,3.7333
0.9348,-0.2343
0.9353,-5.7278
0.9358,-12.1369
0.9363,-17.6304
0.9368,-20.6823
0.9373,-21.5979
0.9378,-21.5979
0.9383,-20.0719
0.9388,-14.5784
0.9393,-7.2537
0.9398,-2.9810
0.9403,-3.5914
0.9408,-5.1174
0.9413,-3.5914
0.9418,0.3761
0.9423,1.9021
0.9428,-0.2343
0.9433,-4.2018
0.9438,-6.6434
0.9443,-6.3382
0.9448,-3.2862
0.9453,0.3761
0.9458,4.6488
0.9463,7.3956
0.9468,8.3112
0.9473,8.3112
0.9478,8.3112
0.9483,8.3112
0.9488,8.0060
0.9493,8.6164
0.9498,11.0579
0.9503,15.0254
0.9508,19.6034
0.9513,24.4865
0.9518,28.7592
0.9523,31.5059
0.9528,33.6423
0.9533,35.1683
0.9538,35.1683
0.9543,33.0319
0.9548,29.0644
0.9553,25.4021
0.9558,24.4865
0.9563,25.7073
0.9568,25.0969
0.9573,19.2982
0.9578,8.9216
0.9583,-1.1499
0.9588,-6.9485
0.9593,-7.5589
0.9598,-4.5070
0.9603,-0.5395
0.9608,0.9865
0.9613,0.3761
0.9618,-0.8447
0.9623,-1.4550
0.9628,-0.2343
0.9633,1.5969
0.9638,2.5125
0.9643,-0.2343
0.9648,-9.3901
0.9653,-24.6498
0.9658,-41.1303
0.9663,-51.2017
0.9668,-50.8965
0.9673,-43.8771
0.9678,-34.7212
0.9683,-25.5654
0.9688,-15.4940
0.9693,-5.7278
0.9698,0.6813
0.9703,4.6488
0.9708,6.4800
0.9713,6.7852
0.9718,5.8696
0.9723,4.9540
0.9728,5.5644
0.9733,5.8696
0.9738,3.4281
0.9743,0.3761
0.9748,0.3761
0.9753,4.9540
0.9758,8.9216
0.9763,8.6164
0.9768,6.1748
0.9773,5.5644
0.9778,7.0904
0.9783,8.6164
0.9788,8.9216
0.9793,9.2268
0.9798,9.8371
0.9803,8.3112
0.9808,5.5644
0.9813,3.4281
0.9818,3.7333
0.9823,4.3436
0.9828,4.3436
0.9833,3.7333
0.9838,4.0384
0.9843,4.9540
0.9848,4.0384
0.9853,2.8177
0.9858,2.2073
0.9863,1.5969
0.9868,-0.5395
0.9873,-5.7278
0.9878,-10.3057
0.9883,-11.5265
0.9888,-11.2213
0.9893,-11.5265
0.9898,-13.3576
0.9903,-14.5784
0.9908,-13.9680
0.9913,-12.1369
0.9918,-10.6109
0.9923,-9.3901
0.9928,-8.4745
0.9933,-6.6434
0.9938,-3.8966
0.9943,-1.7602
0.9948,-2.3706
0.9953,-4.8122
0.9958,-5.1174
0.9963,-1.7602
0.9968,1.2917
0.9973,1.9021
0.9978,1.9021
0.9983,4.3436
0.9988,8.3112
0.9993,10.1423
0.9998,9.2268
1.0003,8.3112
1.0008,7.3956
1.0013,3.4281
1.0018,-3.8966
1.0023,-12.1369
1.0028,-16.7148
1.0033,-17.0200
1.0038,-16.1044
1.0043,-14.8836
1.0048,-11.5265
1.0053,-4.8122
1.0058,3.1229
1.0063,9.2268
1.0068,10.4475
1.0073,7.7008
1.0078,4.9540
1.0083,4.0384
1.0088,4.9540
1.0093,6.7852
1.0098,9.5319
1.0103,11.6683
1.0108,10.7527
1.0113,6.4800
1.0118,1.9021
1.0123,0.3761
1.0128,-1.1499
1.0133,-3.8966
1.0138,-6.3382
1.0143,-4.8122
1.0148,-0.8447
1.0153,0.9865
1.0158,0.3761
1.0163,0.3761
1.0168,2.2073
1.0173,5.2592
1.0178,8.3112
1.0183,11.9735
1.0188,15.6358
1.0193,17.1618
1.0198,17.4670
1.0203,19.2982
1.0208,22.6553
1.0213,23.8761
1.0218,20.5189
1.0223,16.8566
1.0228,16.2462
1.0233,17.1618
1.0238,17.1618
1.0243,15.6358
1.0248,15.6358
1.0253,17.4670
1.0258,20.5189
1.0263,22.6553
1.0268,20.8241
1.0273,14.7203
1.0278,9.5319
1.0283,11.3631
1.0288,16.2462
1.0293,14.7203
1.0298,3.1229
1.0303,-11.5265
1.0308,-21.5979
1.0313,-28.6174
1.0318,-35.3316
1.0323,-40.8251
1.0328,-41.7407
1.0333,-40.5199
1.0338,-39.9095
1.0343,-38.6888
1.0348,-32.2797
1.0353,-21.5979
1.0358,-13.6628
1.0363,-10.9161
1.0368,-10.6109
1.0373,-9.6953
1.0378,-8.7797
1.0383,-8.4745
1.0388,-7.2537
1.0393,-4.5070
1.0398,-1.4550
1.0403,0.6813
1.0408,2.8177
1.0413,4.9540
1.0418,6.1748
1.0423,5.8696
1.0428,4.3436
1.0433,1.9021
1.0438,-0.5395
1.0443,-2.3706
1.0448,-2.0654
1.0453,-0.2343
1.0458,1.9021
1.0463,4.0384
1.0468,6.1748
1.0473,8.3112
1.0478,10.4475
1.0483,12.8891
1.0488,14.7203
1.0493,14.7203
1.0498,12.2787
1.0503,9.8371
1.0508,9.2268
1.0513,9.8371
1.0518,9.5319
1.0523,8.6164
1.0528,8.6164
1.0533,10.4475
1.0538,13.4995
1.0543,15.6358
1.0548,15.6358
1.0553,13.1943
1.0558,9.8371
1.0563,6.4800
1.0568,4.3436
1.0573,3.1229
1.0578,3.7333
1.0583,5.2592
1.0588,7.0904
1.0593,8.3112
1.0598,9.8371
1.0603,12.5839
1.0608,14.4151
1.0613,13.1943
1.0618,8.6164
1.0623,3.7333
1.0628,0.3761
1.0633,-1.7602
1.0638,-4.8122
1.0643,-7.2537
1.0648,-7.8641
1.0653,-8.1693
1.0658,-10.0005
1.0663,-12.7472
1.0668,-14.2732
1.0673,-14.2732
1.0678,-15.7992
1.0683,-17.9355
1.0688,-18.8511
1.0693,-17.0200
1.0698,-13.3576
1.0703,-9.3901
1.0708,-5.7278
1.0713,-3.5914
1.0718,-5.7278
1.0723,-10.3057
1.0728,-13.9680
1.0733,-14.5784
1.0738,-13.3576
1.0743,-13.0524
1.0748,-12.4420
1.0753,-11.2213
1.0758,-10.6109
1.0763,-11.5265
1.0768,-12.7472
1.0773,-10.6109
1.0778,-5.7278
1.0783,-2.3706
1.0788,-3.5914
1.0793,-7.5589
1.0798,-10.6109
1.0803,-10.3057
1.0808,-8.7797
1.0813,-9.3901
1.0818,-13.6628
1.0823,-19.4615
1.0828,-23.4290
1.0833,-24.9550
1.0838,-25.2602
1.0843,-24.9550
1.0848,-22.5135
1.0853,-18.8511
1.0858,-16.1044
1.0863,-15.1888
1.0868,-14.8836
1.0873,-13.3576
1.0878,-10.3057
1.0883,-6.6434
1.0888,-3.5914
1.0893,-1.4550
1.0898,0.3761
1.0903,3.7333
1.0908,9.5319
1.0913,17.4670
1.0918,24.4865
1.0923,27.8436
1.0928,28.1488
1.0933,27.5384
1.0938,26.9280
1.0943,26.0124
1.0948,24.7917
1.0953,23.8761
1.0958,23.8761
1.0963,24.1813
1.0968,24.4865
1.0973,24.4865
1.0978,22.9605
1.0983,19.6034
1.0988,15.9410
1.0993,15.0254
1.0998,17.1618
1.1003,19.6034
1.1008,18.0774
1.1013,12.5839
1.1018,6.4800
1.1023,3.4281
1.1028,3.4281
1.1033,2.5125
1.1038,-2.3706
1.1043,-10.3057
1.1048,-16.4096
1.1053,-16.1044
1.1058,-8.4745
1.1063,3.1229
1.1068,15.0254
1.1073,23.2657
1.1078,27.5384
1.1083,29.0644
1.1088,28.1488
1.1093,24.1813
1.1098,17.1618
1.1103,10.1423
1.1108,5.8696
1.1113,3.1229
1.1118,-1.1499
1.1123,-7.5589
1.1128,-11.5265
1.1133,-10.3057
1.1138,-6.3382
1.1143,-2.3706
1.1148,2.5125
1.1153,8.6164
1.1158,10.1423
1.1163,2.2073
1.1168,-11.8317
1.1173,-22.5135
1.1178,-21.9031
1.1183,-12.4420
1.1188,-2.6758
1.1193,-0.5395
1.1198,-6.9485
1.1203,-18.5459
1.1208,-32.5849
1.1213,-47.5394
1.1218,-64.0199
1.1223,-79.8900
1.1228,-91.1822
1.1233,-96.6757
1.1238,-97.8965
1.1243,-95.4549
1.1248,-87.2147
1.1253,-71.3446
1.1258,-51.2017
1.1263,-33.5005
1.1268,-21.5979
1.1273,-14.2732
1.1278,-6.6434
1.1283,4.6488
1.1288,18.6878
1.1293,28.7592
1.1298,31.5059
1.1303,29.9800
1.1308,29.6748
1.1313,32.7267
1.1318,38.2202
1.1323,47.6812
1.1328,60.1942
1.1333,68.4345
1.1338,66.9085
1.1343,61.1098
1.1348,57.7527
1.1353,51.3436
1.1358,32.1163
1.1363,9.2268
1.1368,5.8696
1.1373,26.0124
1.1378,46.1553
1.1383,46.4605
1.1388,32.7267
1.1393,21.4345
1.1398,16.2462
1.1403,12.8891
1.1408,9.2268
1.1413,4.3436
1.1418,-3.8966
1.1423,-10.3057
1.1428,-7.5589
1.1433,-7.2537
1.1438,-34.7212
1.1443,-91.7926
1.1448,-142.7601
1.1453,-157.1042
1.1458,-142.7601
1.1463,-123.2276
1.1468,-100.6432
1.1473,-64.6303
1.1478,-26.4810
1.1483,-8.1693
1.1488,-7.5589
1.1493,-1.4550
1.1498,20.2138
1.1503,44.9345
1.1508,61.4150
1.1513,71.7916
1.1518,78.5059
1.1523,76.3695
1.1528,63.8566
1.1533,47.9864
1.1538,35.1683
1.1543,25.4021
1.1548,22.3501
1.1553,28.7592
1.1558,39.1358
1.1563,42.7981
1.1568,37.3046
1.1573,30.8956
1.1578,28.7592
1.1583,29.3696
1.1588,31.2008
1.1593,34.2527
1.1598,36.9994
1.1603,35.4735
1.1608,32.1163
1.1613,29.9800
1.1618,26.3176
1.1623,15.6358
1.1628,0.6813
1.1633,-6.3382
1.1638,-2.6758
1.1643,3.1229
1.1648,4.9540
1.1653,6.4800
1.1658,13.8047
1.1663,23.2657
1.1668,27.2332
1.1673,26.6228
1.1678,26.9280
1.1683,30.2852
1.1688,31.8111
1.1693,29.6748
1.1698,26.3176
1.1703,23.8761
1.1708,20.2138
1.1713,13.1943
1.1718,7.3956
1.1723,8.0060
1.1728,15.0254
1.1733,19.9086
1.1738,16.8566
1.1743,6.4800
1.1748,-6.6434
1.1753,-20.0719
1.1758,-29.5329
1.1763,-27.3966
1.1768,-9.6953
1.1773,13.4995
1.1778,26.6228
1.1783,22.9605
1.1788,11.6683
1.1793,3.1229
1.1798,-0.8447
1.1803,-4.8122
1.1808,-10.3057
1.1813,-18.2407
1.1818,-28.0070
1.1823,-33.5005
1.1828,-25.2602
1.1833,-2.3706
1.1838,24.1813
1.1843,44.0189
1.1848,52.2592
1.1853,47.6812
1.1858,30.2852
1.1863,11.0579
1.1868,7.7008
1.1873,22.6553
1.1878,35.7787
1.1883,30.2852
1.1888,20.8241
1.1893,32.1163
1.1898,62.9410
1.1903,83.9994
1.1908,79.1163
1.1913,63.5514
1.1918,58.3631
1.1923,66.6033
1.1928,79.1163
1.1933,91.0189
1.1938,98.0383
1.1943,90.7137
1.1948,66.6033
1.1953,37.3046
1.1958,13.8047
1.1963,-12.4420
1.1968,-59.7472
1.1973,-123.8380
1.1978,-180.6042
1.1983,-213.2600
1.1988,-227.6041
1.1993,-234.9288
1.1998,-230.9612
1.2003,-206.5457
1.2008,-163.8185
1.2013,-115.5978
1.2018,-74.3965
1.2023,-45.7082
1.2028,-28.6174
1.2033,-13.6628
1.2038,13.8047
1.2043,61.4150
1.2048,111.4669
1.2053,136.4928
1.2058,123.0643
1.2063,86.1357
1.2068,50.1228
1.2073,26.6228
1.2078,8.0060
1.2083,-14.5784
1.2088,-40.8251
1.2093,-61.5783
1.2098,-71.9550
1.2103,-73.7861
1.2108,-70.4290
1.2113,-63.1043
1.2118,-52.4225
1.2123,-41.1303
1.2128,-31.3641
1.2133,-22.8187
1.2138,-18.2407
1.2143,-24.9550
1.2148,-46.9290
1.2153,-78.3640
1.2158,-107.3575
1.2163,-124.7536
1.2168,-127.8055
1.2173,-119.5653
1.2178,-106.7471
1.2183,-94.5393
1.2188,-80.1952
1.2193,-58.8316
1.2198,-31.0589
1.2203,-6.3382
1.2208,10.1423
1.2213,22.3501
1.2218,35.1683
1.2223,45.2397
1.2228,44.0189
1.2233,28.7592
1.2238,8.0060
1.2243,-6.6434
1.2248,-12.7472
1.2253,-20.6823
1.2258,-44.1823
1.2263,-77.7537
1.2268,-98.8121
1.2273,-91.1822
1.2278,-64.9355
1.2283,-40.2147
1.2288,-20.0719
1.2293,4.3436
1.2298,31.5059
1.2303,44.6293
1.2308,39.4410
1.2313,35.1683
1.2318,49.5124
1.2323,79.1163
1.2328,108.4149
1.2333,128.5578
1.2338,136.1876
1.2343,127.9474
1.2348,105.6682
1.2353,80.3371
1.2358,62.9410
1.2363,49.8176
1.2368,32.4215
1.2373,9.8371
1.2378,-11.2213
1.2383,-28.3122
1.2388,-47.2342
1.2393,-70.1238
1.2398,-93.3186
1.2403,-109.4939
1.2408,-110.1043
1.2413,-87.5199
1.2418,-46.6238
1.2423,-10.0005
1.2428,-2.3706
1.2433,-22.2083
1.2438,-43.2667
1.2443,-46.9290
1.2448,-40.8251
1.2453,-37.7732
1.2458,-31.0589
1.2463,-10.0005
1.2468,15.9410
1.2473,26.6228
1.2478,23.5709
1.2483,29.6748
1.2488,56.8371
1.2493,91.6292
1.2498,118.4864
1.2503,138.6292
1.2508,156.9408
1.2513,168.5382
1.2518,167.9278
1.2523,161.8240
1.2528,158.1616
1.2533,155.4149
1.2538,148.7006
1.2543,138.0188
1.2548,124.2850
1.2553,104.7526
1.2558,77.5903
1.2563,49.5124
1.2568,29.6748
1.2573,19.9086
1.2578,16.8566
1.2583,18.9930
1.2588,21.1293
1.2593,16.2462
1.2598,2.5125
1.2603,-7.5589
1.2608,-2.3706
1.2613,15.9410
1.2618,33.9475
1.2623,42.7981
1.2628,43.7137
1.2633,38.8306
1.2638,27.5384
1.2643,11.0579
1.2648,-1.7602
1.2653,-6.0330
1.2658,-4.2018
1.2663,-3.2862
1.2668,-4.5070
1.2673,-2.9810
1.2678,0.9865
1.2683,4.3436
1.2688,4.3436
1.2693,4.6488
1.2698,6.7852
1.2703,5.8696
1.2708,-0.2343
1.2713,-6.6434
1.2718,-6.3382
1.2723,-3.2862
1.2728,-4.5070
1.2733,-9.3901
1.2738,-10.3057
1.2743,-6.6434
1.2748,-3.8966
1.2753,-4.2018
1.2758,-3.2862
1.2763,-0.8447
1.2768,-1.7602
1.2773,-6.9485
1.2778,-9.0849
1.2783,-4.2018
1.2788,1.2917
1.2793,2.2073
1.2798,0.9865
1.2803,-0.2343
1.2808,-5.1174
1.2813,-14.8836
1.2818,-22.8187
1.2823,-23.4290
1.2828,-24.0394
1.2833,-34.4160
1.2838,-49.6758
1.2843,-56.3900
1.2848,-49.9810
1.2853,-37.7732
1.2858,-28.9225
1.2863,-24.9550
1.2868,-24.3446
1.2873,-26.1758
1.2878,-27.0914
1.2883,-23.7342
1.2888,-19.4615
1.2893,-21.2927
1.2898,-29.5329
1.2903,-35.9420
1.2908,-36.5524
1.2913,-35.9420
1.2918,-38.6888
1.2923,-41.1303
1.2928,-36.5524
1.2933,-24.3446
1.2938,-10.9161
1.2943,-2.6758
1.2948,-0.8447
1.2953,-2.0654
1.2958,-2.3706
1.2963,0.3761
1.2968,5.5644
1.2973,11.9735
1.2978,18.9930
1.2983,24.7917
1.2988,26.9280
1.2993,23.8761
1.2998,18.3826
1.3003,15.6358
1.3008,15.6358
1.3013,14.4151
1.3018,10.4475
1.3023,5.8696
1.3028,3.1229
1.3033,1.9021
1.3038,-0.2343
1.3043,-3.2862
1.3048,-6.0330
1.3053,-9.3901
1.3058,-15.1888
1.3063,-23.7342
1.3068,-32.5849
1.3073,-39.2992
1.3078,-44.7927
1.3083,-49.6758
1.3088,-54.2537
1.3093,-56.6952
1.3098,-57.6108
1.3103,-57.3056
1.3108,-56.6952
1.3113,-55.7797
1.3118,-54.5589
1.3123,-53.6433
1.3128,-52.7277
1.3133,-50.8965
1.3138,-48.4550
1.3143,-46.0134
1.3148,-44.4875
1.3153,-42.6563
1.3158,-39.6044
1.3163,-35.9420
1.3168,-33.5005
1.3173,-31.0589
1.3178,-27.7018
1.3183,-24.3446
1.3188,-21.2927
1.3193,-18.5459
1.3198,-15.4940
1.3203,-11.8317
1.3208,-8.7797
1.3213,-5.4226
1.3218,-0.8447
1.3223,3.7333
1.3228,7.3956
1.3233,8.3112
1.3238,7.7008
1.3243,7.0904
1.3248,8.0060
1.3253,10.4475
1.3258,13.8047
1.3263,16.8566
1.3268,18.6878
1.3273,18.9930
1.3278,19.2982
1.3283,20.8241
1.3288,21.7397
1.3293,21.1293
1.3298,18.9930
1.3303,18.0774
1.3308,18.6878
1.3313,19.2982
1.3318,18.3826
1.3323,15.3306
1.3328,13.1943
1.3333,13.8047
1.3338,16.8566
1.3343,18.6878
1.3348,17.1618
1.3353,14.1099
1.3358,12.5839
1.3363,13.4995
1.3368,15.3306
1.3373,15.6358
1.3378,14.4151
1.3383,12.5839
1.3388,8.0060
1.3393,-0.5395
1.3398,-10.6109
1.3403,-17.0200
1.3408,-18.2407
1.3413,-15.7992
1.3418,-11.8317
1.3423,-7.2537
1.3428,-3.5914
1.3433,-2.6758
1.3438,-3.5914
1.3443,-2.9810
1.3448,-1.4550
1.3453,-2.3706
1.3458,-6.3382
1.3463,-8.7797
1.3468,-6.3382
1.3473,-3.2862
1.3478,-4.2018
1.3483,-8.7797
1.3488,-11.2213
1.3493,-8.7797
1.3498,-3.2862
1.3503,4.0384
1.3508,12.5839
1.3513,18.3826
1.3518,17.1618
1.3523,11.9735
1.3528,9.8371
1.3533,11.6683
1.3538,12.8891
1.3543,12.5839
1.3548,15.6358
1.3553,21.7397
1.3558,22.0449
1.3563,11.6683
1.3568,-0.5395
1.3573,-2.9810
1.3578,3.7333
1.3583,10.1423
1.3588,10.4475
1.3593,8.3112
1.3598,8.6164
1.3603,11.6683
1.3608,17.7722
1.3613,26.9280
1.3618,34.5579
1.3623,36.0839
1.3628,32.7267
1.3633,30.8956
1.3638,33.0319
1.3643,33.3371
1.3648,28.1488
1.3653,21.4345
1.3658,17.4670
1.3663,15.6358
1.3668,13.1943
1.3673,11.3631
1.3678,13.8047
1.3683,18.0774
1.3688,18.0774
1.3693,10.7527
1.3698,0.3761
1.3703,-6.3382
1.3708,-7.8641
1.3713,-5.4226
1.3718,-2.3706
1.3723,0.6813
1.3728,3.7333
1.3733,5.8696
1.3738,7.7008
1.3743,11.3631
1.3748,17.4670
1.3753,21.4345
1.3758,19.9086
1.3763,15.6358
1.3768,15.6358
1.3773,21.1293
1.3778,27.2332
1.3783,30.5904
1.3788,32.7267
1.3793,32.7267
1.3798,25.0969
1.3803,9.5319
1.3808,-6.3382
1.3813,-16.7148
1.3818,-24.3446
1.3823,-35.6368
1.3828,-48.7602
1.3833,-58.5264
1.3838,-64.6303
1.3843,-69.2082
1.3848,-69.2082
1.3853,-59.4420
1.3858,-41.4355
1.3863,-21.2927
1.3868,-3.2862
1.3873,10.7527
1.3878,18.9930
1.3883,19.6034
1.3888,16.2462
1.3893,15.9410
1.3898,19.2982
1.3903,22.9605
1.3908,25.4021
1.3913,27.8436
1.3918,30.2852
1.3923,31.2008
1.3928,31.5059
1.3933,32.1163
1.3938,31.2008
1.3943,27.2332
1.3948,22.3501
1.3953,18.9930
1.3958,15.6358
1.3963,9.5319
1.3968,4.3436
1.3973,4.0384
1.3978,4.6488
1.3983,-1.1499
1.3988,-15.1888
1.3993,-27.3966
1.3998,-30.7537
1.4003,-26.7862
1.4008,-21.2927
1.4013,-17.6304
1.4018,-15.1888
1.4023,-11.5265
1.4028,-2.3706
1.4033,13.4995
1.4038,32.1163
1.4043,45.5449
1.4048,50.4280
1.4053,48.9020
1.4058,42.1878
1.4062,31.2008
1.4067,19.9086
1.4072,14.1099
1.4077,12.2787
1.4082,4.6488
1.4087,-12.1369
1.4092,-31.9745
1.4097,-44.4875
1.4102,-48.4550
1.4107,-50.2862
1.4112,-54.5589
1.4117,-59.1368
1.4122,-61.5783
1.4127,-60.6628
1.4132,-57.0004
1.4137,-53.3381
1.4142,-52.1173
1.4147,-53.3381
1.4152,-52.4225
1.4157,-45.0979
1.4162,-35.0264
1.4167,-29.2277
1.4172,-29.5329
1.4177,-30.7537
1.4182,-28.6174
1.4187,-25.2602
1.4192,-23.7342
1.4197,-21.9031
1.4202,-17.0200
1.4207,-8.7797
1.4212,-0.5395
1.4217,5.8696
1.4222,12.2787
1.4227,19.2982
1.4232,25.7073
1.4237,29.0644
1.4242,26.3176
1.4247,18.9930
1.4252,11.3631
1.4257,8.6164
1.4262,10.7527
1.4267,14.7203
1.4272,16.8566
1.4277,16.2462
1.4282,14.1099
1.4287,11.3631
1.4292,11.6683
1.4297,16.5514
1.4302,23.8761
1.4307,30.2852
1.4312,35.1683
1.4317,40.9670
1.4322,45.8501
1.4327,44.9345
1.4332,38.8306
1.4337,34.5579
1.4342,37.6098
1.4347,42.4929
1.4352,42.4929
1.4357,37.9150
1.4362,33.9475
1.4367,31.2008
1.4372,27.2332
1.4377,20.2138
1.4382,14.1099
1.4387,11.3631
1.4392,11.0579
1.4397,11.6683
1.4402,11.6683
1.4407,10.1423
1.4412,8.0060
1.4417,7.7008
1.4422,12.2787
1.4427,18.9930
1.4432,22.0449
1.4437,19.9086
1.4442,15.9410
1.4447,13.4995
1.4452,14.1099
1.4457,17.7722
1.4462,24.7917
1.4467,33.3371
1.4472,37.3046
1.4477,31.8111
1.4482,16.2462
1.4487,-1.1499
1.4492,-12.7472
1.4497,-15.7992
1.4502,-16.7148
1.4507,-21.5979
1.4512,-27.3966
1.4517,-27.3966
1.4522,-20.3771
1.4527,-14.5784
1.4532,-13.9680
1.4537,-12.4420
1.4542,-4.5070
1.4547,3.7333
1.4552,4.6488
1.4557,-0.2343
1.4562,-3.5914
1.4567,-3.8966
1.4572,-3.2862
1.4577,2.2073
1.4582,19.2982
1.4587,41.5774
1.4592,51.0384
1.4597,41.8826
1.4602,28.1488
1.4607,24.1813
1.4612,31.2008
1.4617,42.7981
1.4622,55.0059
1.4627,62.6358
1.4632,55.0059
1.4637,30.5904
1.4642,4.0384
1.4647,-12.1369
1.4652,-23.4290
1.4657,-39.2992
1.4662,-54.5589
1.4667,-59.7472
1.4672,-61.8835
1.4677,-75.6173
1.4682,-93.9290
1.4687,-92.0978
1.4692,-66.1563
1.4697,-44.1823
1.4702,-48.1498
1.4707,-67.0718
1.4712,-81.1108
1.4717,-93.6238
1.4722,-117.7341
1.4727,-142.7601
1.4732,-140.6237
1.4737,-105.2211
1.4742,-63.4095
1.4747,-38.0784
1.4752,-23.1239
1.4757,-3.2862
1.4762,19.9086
1.4767,35.1683
1.4772,40.9670
1.4777,43.7137
1.4782,38.8306
1.4787,17.4670
1.4792,-13.6628
1.4797,-35.9420
1.4802,-38.9940
1.4807,-28.9225
1.4812,-12.1369
1.4817,10.4475
1.4822,33.0319
1.4827,43.4085
1.4832,39.4410
1.4837,34.2527
1.4842,38.8306
1.4847,50.1228
1.4852,59.5838
1.4857,60.1942
1.4862,36.6943
1.4867,-27.7018
1.4872,-125.3640
1.4877,-215.3963
1.4882,-260.8703
1.4887,-264.5326
1.4892,-249.5781
1.4897,-222.4158
1.4902,-175.4159
1.4907,-111.3250
1.4912,-44.1823
1.4917,21.4345
1.4922,92.5448
1.4927,159.6876
1.4932,200.2785
1.4937,202.1096
1.4942,176.7785
1.4947,141.6811
1.4952,107.8045
1.4957,84.3046
1.4962,76.3695
1.4967,78.5059
1.4972,77.5903
1.4977,69.6552
1.4982,63.5514
1.4987,63.2462
1.4992,62.6358
1.4997,60.1942
1.5002,64.1617
1.5007,77.2851
1.5012,89.1877
1.5017,90.7137
1.5022,85.2202
1.5027,80.0319
1.5032,75.4539
1.5037,70.2656
1.5042,67.8241
1.5047,70.5708
1.5052,73.0124
1.5057,69.9604
1.5062,63.5514
1.5067,58.0579
1.5072,51.9540
1.5077,42.7981
1.5082,33.9475
1.5087,31.2008
1.5092,33.3371
1.5097,33.9475
1.5102,29.3696
1.5107,21.1293
1.5112,8.3112
1.5117,-11.8317
1.5122,-37.7732
1.5127,-58.8316
1.5132,-66.4615
1.5137,-63.1043
1.5142,-58.2212
1.5147,-57.3056
1.5152,-56.3900
1.5157,-51.8121
1.5162,-44.7927
1.5167,-37.1628
1.5172,-26.1758
1.5177,-9.3901
1.5182,8.9216
1.5187,22.0449
1.5192,27.2332
1.5197,27.5384
1.5202,24.7917
1.5207,20.2138
1.5212,15.0254
1.5217,12.2787
1.5222,12.2787
1.5227,11.6683
1.5232,8.6164
1.5237,4.3436
1.5242,1.2917
1.5247,0.0709
1.5252,0.3761
1.5257,1.5969
1.5262,1.2917
1.5267,-1.1499
1.5272,-2.6758
1.5277,-2.0654
1.5282,-3.5914
1.5287,-16.1044
1.5292,-40.5199
1.5297,-67.9874
1.5302,-87.2147
1.5307,-93.9290
1.5312,-91.1822
1.5317,-82.6368
1.5322,-67.6822
1.5327,-46.6238
1.5332,-22.2083
1.5337,-2.6758
1.5342,5.8696
1.5347,4.6488
1.5352,0.6813
1.5357,-0.8447
1.5362,-1.1499
1.5367,-2.9810
1.5372,-7.2537
1.5377,-10.3057
1.5382,-10.6109
1.5387,-8.4745
1.5392,-5.7278
1.5397,-2.9810
1.5402,-2.0654
1.5407,-4.2018
1.5412,-9.0849
1.5417,-14.8836
1.5422,-19.7667
1.5427,-23.4290
1.5432,-24.3446
1.5437,-23.1239
1.5442,-22.2083
1.5447,-23.7342
1.5452,-27.7018
1.5457,-32.5849
1.5462,-39.6044
1.5467,-48.7602
1.5472,-56.0848
1.5477,-56.6952
1.5482,-49.3706
1.5487,-38.0784
1.5492,-26.7862
1.5497,-17.9355
1.5502,-15.4940
1.5507,-18.5459
1.5512,-18.8511
1.5517,-12.1369
1.5522,-5.4226
1.5527,-9.6953
1.5532,-21.9031
1.5537,-30.1433
1.5542,-36.2472
1.5547,-54.8641
1.5552,-87.5199
1.5557,-115.9030
1.5562,-129.6367
1.5567,-142.1497
1.5572,-164.7341
1.5577,-176.9418
1.5582,-151.3055
1.5587,-94.5393
1.5592,-44.1823
1.5597,-18.5459
1.5602,-2.6758
1.5607,19.6034
1.5612,42.7981
1.5617,52.2592
1.5622,49.8176
1.5627,45.5449
1.5632,42.7981
1.5637,39.1358
1.5642,37.6098
1.5647,41.2722
1.5652,47.0709
1.5657,50.7332
1.5662,55.6163
1.5667,65.0773
1.5672,75.4539
1.5677,79.7267
1.5682,79.7267
1.5687,81.8630
1.5692,85.5254
1.5697,86.7461
1.5702,83.9994
1.5707,79.4215
1.5712,71.4864
1.5717,56.8371
1.5722,37.6098
1.5727,21.7397
1.5732,15.9410
1.5737,21.4345
1.5742,34.2527
1.5747,49.2072
1.5752,60.8046
1.5757,65.9929
1.5762,67.5189
1.5767,70.5708
1.5772,75.7591
1.5777,78.2007
1.5782,75.7591
1.5787,68.7397
1.5792,60.4994
1.5797,52.5644
1.5802,45.5449
1.5807,39.7462
1.5812,35.1683
1.5817,31.8111
1.5822,30.5904
1.5827,28.7592
1.5832,21.1293
1.5837,6.4800
1.5842,-6.9485
1.5847,-11.2213
1.5852,-5.4226
1.5857,3.1229
1.5862,11.3631
1.5867,18.3826
1.5872,21.1293
1.5877,14.7203
1.5882,0.3761
1.5887,-10.0005
1.5892,-6.6434
1.5897,10.7527
1.5902,35.1683
1.5907,56.2267
1.5912,65.6877
1.5917,60.8046
1.5922,47.6812
1.5927,36.9994
1.5932,32.1163
1.5937,21.1293
1.5942,-13.6628
1.5947,-78.6692
1.5952,-157.4094
1.5957,-218.1431
1.5962,-236.4547
1.5967,-215.0911
1.5972,-177.5522
1.5977,-145.8120
1.5982,-124.4484
1.5987,-110.7146
1.5992,-104.3056
1.5997,-106.1367
1.6002,-111.3250
1.6007,-114.9874
1.6012,-118.9549
1.6017,-122.0068
1.6022,-115.5978
1.6027,-95.7601
1.6032,-72.5653
1.6037,-59.7472
1.6042,-57.0004
1.6047,-52.1173
1.6052,-38.3836
1.6057,-20.3771
1.6062,-5.4226
1.6067,1.9021
1.6072,0.3761
1.6077,-6.3382
1.6082,-5.1174
1.6087,13.8047
1.6092,46.1553
1.6097,76.3695
1.6102,97.4279
1.6107,115.4344
1.6112,135.5772
1.6117,153.2785
1.6122,161.2136
1.6127,159.6876
1.6132,153.8889
1.6137,146.8694
1.6142,138.0188
1.6147,125.8110
1.6152,110.5513
1.6157,96.5124
1.6162,85.8306
1.6167,77.5903
1.6172,68.7397
1.6177,59.2786
1.6182,52.2592
1.6187,51.3436
1.6192,55.3111
1.6197,61.4150
1.6202,66.2981
1.6207,68.4345
1.6212,66.9085
1.6217,63.5514
1.6222,61.1098
1.6227,58.3631
1.6232,54.7007
1.6237,50.4280
1.6242,47.6812
1.6247,45.8501
1.6252,43.1033
1.6257,39.7462
1.6262,36.9994
1.6267,33.9475
1.6272,28.4540
1.6277,22.3501
1.6282,19.2982
1.6287,17.1618
1.6292,10.4475
1.6297,-1.4550
1.6302,-13.0524
1.6307,-20.0719
1.6312,-24.6498
1.6317,-28.3122
1.6322,-27.7018
1.6327,-24.0394
1.6332,-22.8187
1.6337,-27.0914
1.6342,-29.5329
1.6347,-22.5135
1.6352,-10.6109
1.6357,-4.5070
1.6362,-6.6434
1.6367,-7.5589
1.6372,-1.4550
1.6377,6.7852
1.6382,11.0579
1.6387,10.4475
1.6392,6.1748
1.6397,-3.2862
1.6402,-20.0719
1.6407,-38.9940
1.6412,-54.2537
1.6417,-64.3251
1.6422,-71.0394
1.6427,-74.0913
1.6432,-73.1757
1.6437,-71.6498
1.6442,-72.5653
1.6447,-72.2602
1.6452,-63.4095
1.6457,-47.2342
1.6462,-31.3641
1.6467,-20.3771
1.6472,-11.2213
1.6477,-3.2862
1.6482,-2.0654
1.6487,-9.0849
1.6492,-17.6304
1.6497,-20.9875
1.6502,-21.2927
1.6507,-23.7342
1.6512,-26.1758
1.6517,-23.1239
1.6522,-12.4420
1.6527,-0.2343
1.6532,8.0060
1.6537,11.9735
1.6542,12.2787
1.6547,10.4475
1.6552,6.7852
1.6557,2.2073
1.6562,-0.8447
1.6567,-1.7602
1.6572,-1.4550
1.6577,-2.0654
1.6582,-2.3706
1.6587,-0.8447
1.6592,0.6813
1.6597,-1.1499
1.6602,-6.9485
1.6607,-10.3057
1.6612,-5.7278
1.6617,3.4281
1.6622,9.5319
1.6627,9.2268
1.6632,5.2592
1.6637,-1.1499
1.6642,-11.5265
1.6647,-23.1239
1.6652,-28.3122
1.6657,-22.5135
1.6662,-9.3901
1.6667,3.7333
1.6672,13.1943
1.6677,18.6878
1.6682,18.0774
1.6687,11.0579
1.6692,1.9021
1.6697,-2.0654
1.6702,-3.8966
1.6707,-9.6953
1.6712,-19.1563
1.6717,-25.5654
1.6722,-25.5654
1.6727,-26.4810
1.6732,-34.4160
1.6737,-42.9615
1.6742,-39.6044
1.6747,-26.1758
1.6752,-17.6304
1.6757,-23.1239
1.6762,-36.8576
1.6767,-46.9290
1.6772,-47.8446
1.6777,-42.3511
1.6782,-31.3641
1.6787,-15.1888
1.6792,3.1229
1.6797,19.9086
1.6802,31.2008
1.6807,35.1683
1.6812,32.7267
1.6817,26.9280
1.6822,20.5189
1.6827,15.6358
1.6832,11.9735
1.6837,10.1423
1.6842,10.1423
1.6847,12.2787
1.6852,14.7203
1.6857,16.8566
1.6862,15.3306
1.6867,8.3112
1.6872,-1.4550
1.6877,-8.7797
1.6882,-10.0005
1.6887,-10.6109
1.6892,-18.5459
1.6897,-35.6368
1.6902,-57.0004
1.6907,-77.7537
1.6912,-96.0653
1.6917,-107.0523
1.6922,-105.8315
1.6927,-92.4030
1.6932,-71.9550
1.6937,-51.2017
1.6942,-33.5005
1.6947,-20.0719
1.6952,-8.4745
1.6957,3.4281
1.6962,14.4151
1.6967,17.7722
1.6972,8.3112
1.6977,-5.7278
1.6982,-10.3057
1.6987,-0.2343
1.6992,11.6683
1.6997,9.2268
1.7002,-9.6953
1.7007,-29.8381
1.7012,-33.1953
1.7017,-17.9355
1.7022,-0.5395
1.7027,5.5644
1.7032,4.6488
1.7037,9.5319
1.7042,20.5189
1.7047,22.6553
1.7052,6.1748
1.7057,-17.6304
1.7062,-29.5329
1.7067,-23.1239
1.7072,-10.3057
1.7077,-5.1174
1.7082,-7.8641
1.7087,-9.6953
1.7092,-4.5070
1.7097,6.1748
1.7102,17.1618
1.7107,24.7917
1.7112,29.6748
1.7117,33.9475
1.7122,39.4410
1.7127,46.1553
1.7132,55.9215
1.7137,70.2656
1.7142,87.0513
1.7147,98.0383
1.7152,95.2916
1.7157,82.4734
1.7162,72.4020
1.7167,70.5708
1.7172,69.6552
1.7177,61.7202
1.7182,51.9540
1.7187,50.4280
1.7192,54.3955
1.7197,52.8696
1.7202,44.9345
1.7207,40.0514
1.7212,36.9994
1.7217,21.1293
1.7222,-14.2732
1.7227,-55.1693
1.7232,-76.5329
1.7237,-65.2407
1.7242,-25.2602
1.7247,24.4865
1.7252,62.0254
1.7257,77.2851
1.7262,81.2526
1.7267,83.3890
1.7272,70.5708
1.7277,27.8436
1.7282,-27.0914
1.7287,-59.1368
1.7292,-67.9874
1.7297,-94.8445
1.7302,-165.0393
1.7307,-248.3573
1.7312,-292.9157
1.7317,-280.4027
1.7322,-230.0457
1.7327,-167.1756
1.7332,-110.4095
1.7337,-69.5134
1.7342,-37.4680
1.7347,3.7333
1.7352,59.5838
1.7357,109.6357
1.7362,135.2720
1.7367,143.2071
1.7372,148.3954
1.7377,149.3110
1.7382,135.8824
1.7387,113.6032
1.7392,97.1227
1.7397,88.8825
1.7402,80.9474
1.7407,74.5384
1.7412,78.5059
1.7417,90.7137
1.7422,98.9539
1.7427,100.1747
1.7432,102.6162
1.7437,109.0253
1.7442,111.4669
1.7447,105.6682
1.7452,99.5643
1.7457,98.6487
1.7462,96.5124
1.7467,88.2721
1.7472,79.1163
1.7477,79.4215
1.7482,86.1357
1.7487,86.7461
1.7492,73.0124
1.7497,45.8501
1.7502,10.7527
1.7507,-25.2602
1.7512,-53.3381
1.7517,-67.6822
1.7522,-78.9744
1.7527,-100.6432
1.7532,-126.2796
1.7537,-130.5523
1.7542,-106.1367
1.7547,-80.5004
1.7552,-84.1627
1.7557,-110.1043
1.7562,-123.8380
1.7567,-109.7991
1.7572,-87.2147
1.7577,-78.9744
1.7582,-82.9420
1.7587,-81.1108
1.7592,-66.1563
1.7597,-44.7927
1.7602,-24.3446
1.7607,-6.0330
1.7612,7.7008
1.7617,11.3631
1.7622,2.2073
1.7627,-12.7472
1.7632,-24.0394
1.7637,-28.0070
1.7642,-29.5329
1.7647,-32.8901
1.7652,-38.6888
1.7657,-44.1823
1.7662,-45.4030
1.7667,-35.3316
1.7672,-10.9161
1.7677,20.5189
1.7682,43.7137
1.7687,49.8176
1.7692,45.2397
1.7697,40.0514
1.7702,36.0839
1.7707,29.3696
1.7712,19.9086
1.7717,7.7008
1.7722,-11.2213
1.7727,-38.0784
1.7732,-57.9160
1.7737,-54.5589
1.7742,-29.8381
1.7747,-4.5070
1.7752,9.2268
1.7757,20.8241
1.7762,40.9670
1.7767,63.2462
1.7772,74.5384
1.7777,73.3176
1.7782,68.4345
1.7787,64.4669
1.7792,59.2786
1.7797,53.4799
1.7802,52.8696
1.7807,59.5838
1.7812,65.9929
1.7817,61.4150
1.7822,41.5774
1.7827,10.4475
1.7832,-22.2083
1.7837,-47.5394
1.7842,-56.0848
1.7847,-45.4030
1.7852,-24.3446
1.7857,-9.6953
1.7862,-11.8317
1.7867,-22.5135
1.7872,-25.5654
1.7877,-17.6304
1.7882,-12.4420
1.7887,-23.7342
1.7892,-48.4550
1.7897,-70.7342
1.7902,-77.4485
1.7907,-64.0199
1.7912,-33.1953
1.7917,3.1229
1.7922,27.5384
1.7927,30.5904
1.7932,21.4345
1.7937,15.3306
1.7942,13.8047
1.7947,4.3436
1.7952,-18.2407
1.7957,-43.2667
1.7962,-53.9485
1.7967,-50.8965
1.7972,-50.2862
1.7977,-68.9030
1.7982,-105.2211
1.7987,-140.0133
1.7992,-152.8315
1.7997,-139.0977
1.8002,-106.7471
1.8007,-65.5459
1.8012,-21.5979
1.8017,18.6878
1.8022,48.9020
1.8027,68.7397
1.8032,84.9150
1.8037,98.0383
1.8042,103.8370
1.8047,101.0903
1.8052,99.8695
1.8057,106.2786
1.8062,111.7721
1.8067,105.0578
1.8072,89.1877
1.8077,75.7591
1.8082,65.6877
1.8087,48.9020
1.8092,23.2657
1.8097,0.3761
1.8102,-9.3901
1.8107,-6.3382
1.8112,3.1229
1.8117,15.6358
1.8122,25.7073
1.8127,21.7397
1.8132,-2.6758
1.8137,-38.0784
1.8142,-61.2732
1.8147,-57.6108
1.8152,-31.6693
1.8157,0.3761
1.8162,26.0124
1.8167,40.3566
1.8172,42.7981
1.8177,36.6943
1.8182,29.9800
1.8187,26.3176
1.8192,19.2982
1.8197,1.9021
1.8202,-18.5459
1.8207,-25.2602
1.8212,-12.4420
1.8217,0.6813
1.8222,-6.6434
1.8227,-30.4485
1.8232,-42.9615
1.8237,-29.5329
1.8242,-9.3901
1.8247,-16.1044
1.8252,-59.1368
1.8257,-115.2926
1.8262,-154.0523
1.8267,-164.1237
1.8272,-156.1886
1.8277,-145.5068
1.8282,-137.2666
1.8287,-124.4484
1.8292,-95.1497
1.8297,-44.4875
1.8302,16.8566
1.8307,70.8760
1.8312,109.9409
1.8317,144.1227
1.8322,180.7460
1.8327,207.2979
1.8332,202.1096
1.8337,158.7720
1.8342,95.5968
1.8347,39.4410
1.8352,7.0904
1.8357,-0.8447
1.8362,-4.8122
1.8367,-32.5849
1.8372,-93.9290
1.8377,-168.0912
1.8382,-224.2470
1.8387,-255.3768
1.8392,-273.3833
1.8397,-277.9612
1.8402,-246.5262
1.8407,-163.8185
1.8412,-47.8446
1.8417,65.0773
1.8422,150.2266
1.8427,200.5836
1.8432,217.9797
1.8437,207.2979
1.8442,177.6941
1.8447,140.7655
1.8452,107.1942
1.8457,85.8306
1.8462,78.5059
1.8467,79.1163
1.8472,79.4215
1.8477,78.5059
1.8482,77.8955
1.8487,74.5384
1.8492,62.9410
1.8497,48.5968
1.8502,42.1878
1.8507,43.7137
1.8512,42.4929
1.8517,36.9994
1.8522,38.2202
1.8527,48.2916
1.8532,51.9540
1.8537,36.9994
1.8542,11.3631
1.8547,-7.5589
1.8552,-13.3576
1.8557,-5.7278
1.8562,11.9735
1.8567,31.2008
1.8572,38.2202
1.8577,32.7267
1.8582,33.6423
1.8587,54.3955
1.8592,76.9799
1.8597,70.8760
1.8602,33.9475
1.8607,-9.0849
1.8612,-40.5199
1.8617,-65.8511
1.8622,-95.4549
1.8627,-122.6172
1.8632,-133.6042
1.8637,-120.1757
1.8642,-82.6368
1.8647,-30.7537
1.8652,14.7203
1.8657,33.0319
1.8662,21.1293
1.8667,-0.8447
1.8672,-12.1369
1.8677,-9.6953
1.8682,-2.9810
1.8687,-1.4550
1.8692,-8.7797
1.8697,-22.8187
1.8702,-34.4160
1.8707,-33.1953
1.8712,-19.7667
1.8717,-6.3382
1.8722,-0.8447
1.8727,1.9021
1.8732,6.4800
1.8737,8.9216
1.8742,6.4800
1.8747,7.0904
1.8752,16.2462
1.8757,26.3176
1.8762,28.1488
1.8767,25.4021
1.8772,27.2332
1.8777,32.1163
1.8782,31.2008
1.8787,22.0449
1.8792,12.2787
1.8797,6.1748
1.8802,2.5125
1.8807,1.9021
1.8812,4.6488
1.8817,6.7852
1.8822,1.2917
1.8827,-10.9161
1.8832,-24.0394
1.8837,-33.1953
1.8842,-40.8251
1.8847,-49.0654
1.8852,-55.7797
1.8857,-58.5264
1.8862,-57.0004
1.8867,-52.7277
1.8872,-47.2342
1.8877,-43.8771
1.8882,-43.5719
1.8887,-44.4875
1.8892,-44.4875
1.8897,-43.2667
1.8902,-42.9615
1.8907,-42.6563
1.8912,-41.1303
1.8917,-38.6888
1.8922,-37.4680
1.8927,-37.4680
1.8932,-36.2472
1.8937,-33.5005
1.8942,-30.7537
1.8947,-29.2277
1.8952,-26.7862
1.8957,-21.5979
1.8962,-14.8836
1.8967,-8.7797
1.8972,-5.1174
1.8977,-3.2862
1.8982,-2.6758
1.8987,-1.7602
1.8992,0.3761
1.8997,5.5644
1.9002,11.9735
1.9007,17.4670
1.9012,21.1293
1.9017,23.5709
1.9022,25.7073
1.9027,27.5384
1.9032,29.6748
1.9037,32.7267
1.9042,37.3046
1.9047,39.7462
1.9052,37.3046
1.9057,30.8956
1.9062,25.7073
1.9067,25.7073
1.9072,30.8956
1.9077,36.3891
1.9082,36.0839
1.9087,26.9280
1.9092,12.8891
1.9097,4.6488
1.9102,9.8371
1.9107,23.5709
1.9112,32.4215
1.9117,26.9280
1.9122,11.0579
1.9127,-4.8122
1.9132,-15.1888
1.9137,-20.3771
1.9142,-21.9031
1.9147,-22.5135
1.9152,-24.6498
1.9157,-28.9225
1.9162,-33.1953
1.9167,-34.7212
1.9172,-34.4160
1.9177,-35.3316
1.9182,-37.7732
1.9187,-39.2992
1.9192,-39.9095
1.9197,-42.3511
1.9202,-46.9290
1.9207,-51.8121
1.9212,-56.3900
1.9217,-62.1887
1.9222,-67.0718
1.9227,-66.7667
1.9232,-58.8316
1.9237,-46.3186
1.9242,-33.8057
1.9247,-24.6498
1.9252,-20.3771
1.9257,-21.9031
1.9262,-24.3446
1.9267,-20.3771
1.9272,-7.8641
1.9277,4.6488
1.9282,9.2268
1.9287,7.7008
1.9292,9.2268
1.9297,16.8566
1.9302,24.1813
1.9307,26.9280
1.9312,27.2332
1.9317,29.3696
1.9322,32.7267
1.9327,34.8631
1.9332,36.3891
1.9337,38.5254
1.9342,39.4410
1.9347,36.9994
1.9352,33.9475
1.9357,34.5579
1.9362,38.8306
1.9367,43.7137
1.9372,46.7657
1.9377,47.9864
1.9382,48.2916
1.9387,47.6812
1.9392,47.9864
1.9397,51.9540
1.9402,59.5838
1.9407,68.1293
1.9412,75.4539
1.9417,80.9474
1.9422,82.7786
1.9427,79.4215
1.9432,71.1812
1.9437,60.4994
1.9442,47.6812
1.9447,33.9475
1.9452,25.0969
1.9457,24.4865
1.9462,27.8436
1.9467,28.1488
1.9472,24.7917
1.9477,22.6553
1.9482,22.0449
1.9487,17.7722
1.9492,8.3112
1.9497,0.3761
1.9502,-2.3706
1.9507,-3.5914
1.9512,-6.6434
1.9517,-9.6953
1.9522,-10.0005
1.9527,-9.3901
1.9532,-10.6109
1.9537,-11.8317
1.9542,-11.5265
1.9547,-11.5265
1.9552,-15.4940
1.9557,-21.2927
1.9562,-24.0394
1.9567,-22.2083
1.9572,-19.4615
1.9577,-17.3252
1.9582,-13.6628
1.9587,-6.0330
1.9592,1.2917
1.9597,3.7333
1.9602,0.9865
1.9607,0.3761
1.9612,5.2592
1.9617,13.8047
1.9622,20.5189
1.9627,24.4865
1.9632,26.9280
1.9637,25.7073
1.9642,16.8566
1.9647,4.0384
1.9652,-2.6758
1.9657,-1.4550
1.9662,0.9865
1.9667,-0.8447
1.9672,-3.2862
1.9677,-1.4550
1.9682,1.5969
1.9686,1.2917
1.9691,-0.2343
1.9696,1.2917
1.9701,4.6488
1.9706,5.2592
1.9711,3.7333
1.9716,4.0384
1.9721,4.9540
1.9726,3.1229
1.9731,0.3761
1.9736,0.9865
1.9741,4.0384
1.9746,2.8177
1.9751,-3.5914
1.9756,-10.6109
1.9761,-15.1888
1.9766,-19.7667
1.9771,-23.7342
1.9776,-24.3446
1.9781,-20.9875
1.9786,-18.8511
1.9791,-20.3771
1.9796,-23.1239
1.9801,-23.7342
1.9806,-22.8187
1.9811,-21.5979
1.9816,-20.0719
1.9821,-17.9355
1.9826,-17.0200
1.9831,-17.0200
1.9836,-16.4096
1.9841,-15.1888
1.9846,-15.1888
1.9851,-18.2407
1.9856,-22.5135
1.9861,-25.2602
1.9866,-24.9550
1.9871,-22.5135
1.9876,-19.1563
1.9881,-17.3252
1.9886,-17.3252
1.9891,-17.6304
1.9896,-16.4096
1.9901,-13.6628
1.9906,-11.5265
1.9911,-10.6109
1.9916,-9.0849
1.9921,-7.2537
1.9926,-6.0330
1.9931,-5.1174
1.9936,-3.5914
1.9941,-1.4550
1.9946,0.0709
1.9951,0.6813
1.9956,2.8177
1.9961,6.4800
1.9966,10.7527
1.9971,14.1099
1.9976,16.8566
1.9981,18.6878
1.9986,18.3826
1.9991,17.4670
1.9996,17.4670
2.0001,18.3826
2.0006,16.2462
2.0011,9.8371
2.0016,2.8177
2.0021,-1.4550
2.0026,-6.0330
2.0031,-13.0524
2.0036,-19.7667
2.0041,-21.2927
2.0046,-18.8511
2.0051,-19.4615
2.0056,-25.8706
2.0061,-32.2797
2.0066,-33.1953
2.0071,-28.9225
2.0076,-22.2083
2.0081,-14.8836
2.0086,-8.1693
2.0091,-5.4226
2.0096,-5.7278
2.0101,-3.8966
2.0106,1.2917
2.0111,3.1229
2.0116,-5.7278
2.0121,-18.8511
2.0126,-20.6823
2.0131,-6.3382
2.0136,10.1423
2.0141,14.7203
2.0146,9.2268
2.0151,5.8696
2.0156,8.6164
2.0161,10.4475
2.0166,4.9540
2.0171,-5.1174
2.0176,-12.7472
2.0181,-13.0524
2.0186,-5.1174
2.0191,6.4800
2.0196,16.5514
2.0201,22.0449
2.0206,26.3176
2.0211,34.5579
2.0216,45.2397
2.0221,53.1747
2.0226,59.2786
2.0231,69.0449
2.0236,81.2526
2.0241,85.5254
2.0246,73.0124
2.0251,48.2916
2.0256,23.8761
2.0261,5.8696
2.0266,-8.7797
2.0271,-27.0914
2.0276,-48.7602
2.0281,-71.6498
2.0286,-96.3705
2.0291,-121.7016
2.0296,-142.1497
2.0301,-149.1691
2.0306,-141.2341
2.0311,-128.1107
2.0316,-116.2081
2.0321,-99.4225
2.0326,-66.7667
2.0331,-19.7667
2.0336,29.3696
2.0341,69.9604
2.0346,97.4279
2.0351,105.3630
2.0356,88.5773
2.0361,53.7851
2.0366,18.9930
2.0371,-3.5914
2.0376,-19.7667
2.0381,-39.2992
2.0386,-58.8316
2.0391,-70.7342
2.0396,-76.8381
2.0401,-87.8251
2.0406,-107.0523
2.0411,-121.0913
2.0416,-114.9874
2.0421,-85.6887
2.0426,-42.3511
2.0431,7.0904
2.0436,65.9929
2.0441,132.2201
2.0446,185.6291
2.0451,196.0057
2.0456,157.8564
2.0461,103.5318
2.0466,73.3176
2.0471,73.9280
2.0476,83.0838
2.0481,85.5254
2.0486,88.5773
2.0491,96.2072
2.0496,93.7656
2.0501,69.0449
2.0506,36.9994
2.0511,22.0449
2.0516,25.7073
2.0521,29.0644
2.0526,18.6878
2.0531,-0.2343
2.0536,-21.5979
2.0541,-45.4030
2.0546,-71.3446
2.0551,-89.0458
2.0556,-86.2991
2.0561,-61.2732
2.0566,-22.8187
2.0571,15.0254
2.0576,39.4410
2.0581,44.0189
2.0586,31.5059
2.0591,13.1943
2.0596,-0.8447
2.0601,-7.8641
2.0606,-9.3901
2.0611,-8.7797
2.0616,-10.3057
2.0621,-13.9680
2.0626,-15.4940
2.0631,-13.0524
2.0636,-8.4745
2.0641,-6.3382
2.0646,-6.0330
2.0651,-5.1174
2.0656,-2.9810
2.0661,-2.3706
2.0666,-3.5914
2.0671,-4.5070
2.0676,-1.7602
2.0681,5.2592
2.0686,14.1099
2.0691,21.1293
2.0696,25.0969
2.0701,26.6228
2.0706,28.1488
2.0711,32.4215
2.0716,40.9670
2.0721,50.4280
2.0726,50.1228
2.0731,33.6423
2.0736,11.0579
2.0741,1.5969
2.0746,7.7008
2.0751,10.1423
2.0756,-2.6758
2.0761,-17.9355
2.0766,-15.7992
2.0771,-2.3706
2.0776,2.5125
2.0781,-5.7278
2.0786,-17.3252
2.0791,-25.5654
2.0796,-31.9745
2.0801,-28.9225
2.0806,-6.3382
2.0811,26.0124
2.0816,43.7137
2.0821,40.3566
2.0826,33.6423
2.0831,36.9994
2.0836,39.1358
2.0841,27.8436
2.0846,10.4475
2.0851,0.3761
2.0856,-1.1499
2.0861,-1.4550
2.0866,-0.2343
2.0871,4.6488
2.0876,9.2268
2.0881,5.2592
2.0886,-8.1693
2.0891,-26.1758
2.0896,-40.5199
2.0901,-43.8771
2.0906,-34.1109
2.0911,-23.1239
2.0916,-27.0914
2.0921,-46.3186
2.0926,-63.1043
2.0931,-64.6303
2.0936,-58.2212
2.0941,-56.3900
2.0946,-57.6108
2.0951,-50.5913
2.0956,-33.8057
2.0961,-17.3252
2.0966,-10.0005
2.0971,-8.4745
2.0976,-5.4226
2.0981,-0.2343
2.0986,0.3761
2.0991,-8.1693
2.0996,-20.9875
2.1001,-28.6174
2.1006,-25.5654
2.1011,-16.4096
2.1016,-8.7797
2.1021,-1.1499
2.1026,10.4475
2.1031,24.7917
2.1036,32.4215
2.1041,28.4540
2.1046,18.9930
2.1051,12.8891
2.1056,9.2268
2.1061,1.5969
2.1066,-10.9161
2.1071,-20.3771
2.1076,-20.9875
2.1081,-15.7992
2.1086,-11.2213
2.1091,-8.4745
2.1096,-6.3382
2.1101,-6.0330
2.1106,-9.3901
2.1111,-13.0524
2.1116,-11.5265
2.1121,-7.2537
2.1126,-8.1693
2.1131,-15.7992
2.1136,-21.2927
2.1141,-17.9355
2.1146,-10.9161
2.1151,-6.9485
2.1156,-4.8122
2.1161,0.3761
2.1166,5.5644
2.1171,5.5644
2.1176,1.9021
2.1181,4.0384
2.1186,13.4995
2.1191,22.6553
2.1196,25.0969
2.1201,22.6553
2.1206,19.6034
2.1211,16.2462
2.1216,10.7527
2.1221,1.5969
2.1226,-13.0524
2.1231,-33.1953
2.1236,-52.1173
2.1241,-60.3576
2.1246,-54.8641
2.1251,-40.5199
2.1256,-23.7342
2.1261,-10.9161
2.1266,-10.9161
2.1271,-24.9550
2.1276,-38.0784
2.1281,-27.3966
2.1286,12.2787
2.1291,60.8046
2.1296,91.9344
2.1301,101.3955
2.1306,103.8370
2.1311,106.5838
2.1316,101.0903
2.1321,77.5903
2.1326,43.4085
2.1331,17.4670
2.1336,10.1423
2.1341,15.3306
2.1346,20.2138
2.1351,17.7722
2.1356,11.9735
2.1361,8.6164
2.1366,10.1423
2.1371,15.3306
2.1376,21.1293
2.1381,24.7917
2.1386,26.0124
2.1391,24.7917
2.1396,22.3501
2.1401,20.8241
2.1406,21.1293
2.1411,22.9605
2.1416,23.8761
2.1421,23.8761
2.1426,23.2657
2.1431,22.9605
2.1436,20.8241
2.1441,16.5514
2.1446,14.1099
2.1451,15.6358
2.1456,17.1618
2.1461,14.4151
2.1466,8.9216
2.1471,7.0904
2.1476,10.1423
2.1481,16.2462
2.1486,24.1813
2.1491,31.8111
2.1496,32.7267
2.1501,25.0969
2.1506,16.2462
2.1511,16.5514
2.1516,20.2138
2.1521,10.4475
2.1526,-15.1888
2.1531,-40.8251
2.1536,-48.7602
2.1541,-41.7407
2.1546,-35.3316
2.1551,-38.0784
2.1556,-41.7407
2.1561,-36.2472
2.1566,-21.5979
2.1571,-10.0005
2.1576,-14.2732
2.1581,-33.5005
2.1586,-50.8965
2.1591,-49.9810
2.1596,-32.5849
2.1601,-10.9161
2.1606,9.2268
2.1611,31.8111
2.1616,52.2592
2.1621,53.4799
2.1626,27.2332
2.1631,-12.1369
2.1636,-41.1303
2.1641,-51.5069
2.1646,-52.4225
2.1651,-51.2017
2.1656,-45.0979
2.1661,-32.2797
2.1666,-20.9875
2.1671,-20.3771
2.1676,-27.0914
2.1681,-30.7537
2.1686,-25.8706
2.1691,-17.6304
2.1696,-12.4420
2.1701,-12.4420
2.1706,-13.9680
2.1711,-13.6628
2.1716,-11.8317
2.1721,-13.0524
2.1726,-20.6823
2.1731,-30.4485
2.1736,-35.6368
2.1741,-33.5005
2.1746,-30.7537
2.1751,-31.0589
2.1756,-31.6693
2.1761,-28.0070
2.1766,-21.5979
2.1771,-15.7992
2.1776,-9.3901
2.1781,-1.1499
2.1786,6.1748
2.1791,9.2268
2.1796,8.9216
2.1801,7.3956
2.1806,3.4281
2.1811,-2.6758
2.1816,-6.0330
2.1821,-0.8447
2.1826,9.2268
2.1831,18.6878
2.1836,28.1488
2.1841,39.1358
2.1846,44.9345
2.1851,36.9994
2.1856,23.5709
2.1861,20.8241
2.1866,30.8956
2.1871,39.4410
2.1876,40.3566
2.1881,41.8826
2.1886,46.7657
2.1891,40.0514
2.1896,14.7203
2.1901,-6.9485
2.1906,-2.0654
2.1911,18.0774
2.1916,18.0774
2.1921,-13.0524
2.1926,-43.5719
2.1931,-41.1303
2.1936,-16.4096
2.1941,-4.5070
2.1946,-20.3771
2.1951,-45.7082
2.1956,-57.9160
2.1961,-55.7797
2.1966,-48.7602
2.1971,-41.1303
2.1976,-33.1953
2.1981,-26.4810
2.1986,-21.2927
2.1991,-12.4420
2.1996,4.6488
2.2001,23.2657
2.2006,29.0644
2.2011,18.3826
2.2016,2.8177
2.2021,-2.0654
2.2026,7.7008
2.2031,24.7917
2.2036,36.0839
2.2041,34.5579
2.2046,21.7397
2.2051,4.3436
2.2056,-6.9485
2.2061,-6.0330
2.2066,3.4281
2.2071,9.8371
2.2076,8.9216
2.2081,9.5319
2.2086,17.7722
2.2091,21.1293
2.2096,6.4800
2.2101,-16.4096
2.2106,-23.7342
2.2111,-10.6109
2.2116,5.8696
2.2121,10.7527
2.2126,4.0384
2.2131,-10.3057
2.2136,-32.5849
2.2141,-54.2537
2.2146,-61.5783
2.2151,-57.6108
2.2156,-57.3056
2.2161,-63.1043
2.2166,-57.9160
2.2171,-35.6368
2.2176,-13.0524
2.2181,-2.9810
2.2186,3.1229
2.2191,11.3631
2.2196,10.4475
2.2201,-4.5070
2.2206,-12.7472
2.2211,7.7008
2.2216,47.0709
2.2221,74.2332
2.2226,75.4539
2.2231,62.9410
2.2236,51.3436
2.2241,43.7137
2.2246,40.3566
2.2251,41.8826
2.2256,45.5449
2.2261,45.8501
2.2266,39.1358
2.2271,24.4865
2.2276,5.8696
2.2281,-11.2213
2.2286,-21.2927
2.2291,-25.2602
2.2296,-28.9225
2.2301,-32.5849
2.2306,-31.6693
2.2311,-23.4290
2.2316,-13.0524
2.2321,-5.1174
2.2326,1.2917
2.2331,7.7008
2.2336,12.8891
2.2341,15.9410
2.2346,17.4670
2.2351,16.8566
2.2356,13.1943
2.2361,11.0579
2.2366,15.0254
2.2371,22.9605
2.2376,27.2332
2.2381,25.0969
2.2386,20.8241
2.2391,19.6034
2.2396,21.7397
2.2401,24.4865
2.2406,26.0124
2.2411,26.3176
2.2416,26.9280
2.2421,29.3696
2.2426,32.4215
2.2431,33.6423
2.2436,29.9800
2.2441,23.2657
2.2446,15.6358
2.2451,8.0060
2.2456,2.5125
2.2461,0.9865
2.2466,2.8177
2.2471,4.3436
2.2476,4.6488
2.2481,5.8696
2.2486,9.5319
2.2491,12.2787
2.2496,12.8891
2.2501,15.6358
2.2506,22.9605
2.2511,29.3696
2.2516,29.0644
2.2521,24.4865
2.2526,24.1813
2.2531,31.5059
2.2536,39.4410
2.2541,40.6618
2.2546,33.9475
2.2551,24.4865
2.2556,16.2462
2.2561,10.7527
2.2566,6.7852
2.2571,3.1229
2.2576,-0.2343
2.2581,-3.2862
2.2586,-4.2018
2.2591,-2.3706
2.2596,1.5969
2.2601,8.0060
2.2606,12.8891
2.2611,10.4475
2.2616,-1.7602
2.2621,-16.7148
2.2626,-23.7342
2.2631,-19.4615
2.2636,-11.2213
2.2641,-7.8641
2.2646,-12.4420
2.2651,-23.4290
2.2656,-36.5524
2.2661,-44.1823
2.2666,-39.2992
2.2671,-25.2602
2.2676,-14.2732
2.2681,-10.9161
2.2686,-6.3382
2.2691,3.4281
2.2696,2.2073
2.2701,-26.1758
2.2706,-70.7342
2.2711,-97.2861
2.2716,-89.3510
2.2721,-65.2407
2.2726,-52.7277
2.2731,-58.5264
2.2736,-70.7342
2.2741,-74.3965
2.2746,-63.7147
2.2751,-40.8251
2.2756,-17.0200
2.2761,-3.8966
2.2766,-0.8447
2.2771,1.5969
2.2776,9.5319
2.2781,15.9410
2.2786,16.8566
2.2791,18.3826
2.2796,25.0969
2.2801,29.3696
2.2806,23.5709
2.2811,12.5839
2.2816,8.9216
2.2821,16.8566
2.2826,29.0644
2.2831,39.1358
2.2836,43.4085
2.2841,39.4410
2.2846,29.0644
2.2851,20.2138
2.2856,17.1618
2.2861,16.5514
2.2866,12.2787
2.2871,2.8177
2.2876,-13.9680
2.2881,-41.4355
2.2886,-71.9550
2.2891,-87.2147
2.2896,-76.8381
2.2901,-52.1173
2.2906,-34.7212
2.2911,-34.4160
2.2916,-43.8771
2.2921,-48.7602
2.2926,-40.8251
2.2931,-23.1239
2.2936,-11.2213
2.2941,-16.7148
2.2946,-30.7537
2.2951,-30.4485
2.2956,-2.0654
2.2961,40.6618
2.2966,74.2332
2.2971,83.6942
2.2976,68.1293
2.2981,37.6098
2.2986,11.6683
2.2991,8.9216
2.2996,28.1488
2.3001,45.8501
2.3006,41.5774
2.3011,19.6034
2.3016,0.0709
2.3021,-6.3382
2.3026,-6.0330
2.3031,-11.5265
2.3036,-30.1433
2.3041,-54.8641
2.3046,-68.9030
2.3051,-60.0524
2.3056,-36.2472
2.3061,-18.2407
2.3066,-16.4096
2.3071,-23.7342
2.3076,-29.8381
2.3081,-34.4160
2.3086,-37.7732
2.3091,-36.2472
2.3096,-30.1433
2.3101,-26.4810
2.3106,-24.0394
2.3111,-12.1369
2.3116,11.3631
2.3121,31.8111
2.3126,34.5579
2.3131,26.6228
2.3136,24.7917
2.3141,30.2852
2.3146,32.1163
2.3151,26.9280
2.3156,28.1488
2.3161,47.3761
2.3166,80.9474
2.3171,110.5513
2.3176,120.0123
2.3181,102.6162
2.3186,66.9085
2.3191,31.2008
2.3196,10.4475
2.3201,7.0904
2.3206,12.2787
2.3211,16.5514
2.3216,13.8047
2.3221,3.1229
2.3226,-11.2213
2.3231,-22.5135
2.3236,-27.0914
2.3241,-28.0070
2.3246,-27.7018
2.3251,-22.5135
2.3256,-11.8317
2.3261,-4.8122
2.3266,-10.9161
2.3271,-24.0394
2.3276,-29.8381
2.3281,-25.8706
2.3286,-26.7862
2.3291,-43.5719
2.3296,-67.6822
2.3301,-82.6368
2.3306,-78.6692
2.3311,-61.8835
2.3316,-42.9615
2.3321,-29.8381
2.3326,-22.8187
2.3331,-14.2732
2.3336,0.0709
2.3341,12.8891
2.3346,14.4151
2.3351,4.3436
2.3356,-5.7278
2.3361,-6.0330
2.3366,3.1229
2.3371,16.5514
2.3376,27.8436
2.3381,32.7267
2.3386,31.5059
2.3391,29.0644
2.3396,30.8956
2.3401,35.7787
2.3406,36.3891
2.3411,30.8956
2.3416,24.1813
2.3421,21.1293
2.3426,18.3826
2.3431,15.6358
2.3436,16.2462
2.3441,21.7397
2.3446,25.4021
2.3451,20.2138
2.3456,9.5319
2.3461,1.2917
2.3466,-0.2343
2.3471,3.1229
2.3476,12.5839
2.3481,28.1488
2.3486,47.0709
2.3491,61.4150
2.3496,65.3825
2.3501,62.6358
2.3506,62.3306
2.3511,65.3825
2.3516,61.1098
2.3521,36.6943
2.3526,-5.1174
2.3531,-43.8771
2.3536,-61.2732
2.3541,-57.3056
2.3546,-45.0979
2.3551,-33.8057
2.3556,-24.3446
2.3561,-15.7992
2.3566,-10.9161
2.3571,-9.6953
2.3576,-9.6953
2.3581,-9.6953
2.3586,-11.2213
2.3591,-14.2732
2.3596,-15.1888
2.3601,-8.4745
2.3606,7.0904
2.3611,28.1488
2.3616,49.5124
2.3621,68.7397
2.3626,89.1877
2.3631,109.3305
2.3636,118.4864
2.3641,108.1097
2.3646,87.0513
2.3651,73.0124
2.3656,67.5189
2.3661,54.7007
2.3666,33.3371
2.3671,25.0969
2.3676,46.4605
2.3681,80.3371
2.3686,94.6812
2.3691,78.2007
2.3696,42.4929
2.3701,-4.8122
2.3706,-67.6822
2.3711,-145.5068
2.3716,-223.0262
2.3721,-280.4027
2.3726,-307.2598
2.3731,-309.0910
2.3736,-302.9871
2.3741,-302.0715
2.3746,-294.1365
2.3751,-248.9677
2.3756,-157.4094
2.3761,-52.4225
2.3766,21.1293
2.3771,51.6488
2.3776,57.7527
2.3781,55.3111
2.3786,43.1033
2.3791,17.4670
2.3796,-15.1888
2.3801,-41.4355
2.3806,-47.2342
2.3811,-23.7342
2.3816,23.2657
2.3821,69.9604
2.3826,94.0708
2.3831,102.9214
2.3836,124.8954
2.3841,178.9148
2.3846,254.2979
2.3851,322.0510
2.3856,355.6224
2.3861,340.9731
2.3866,281.1550
2.3871,201.8044
2.3876,138.9344
2.3881,110.5513
2.3886,104.1422
2.3891,98.0383
2.3896,86.7461
2.3901,80.9474
2.3906,76.9799
2.3911,41.5774
2.3916,-61.2732
2.3921,-229.4353
2.3926,-413.1623
2.3931,-559.3504
2.3936,-658.5386
2.3941,-738.4995
2.3946,-812.9670
2.3951,-850.2007
2.3956,-805.3371
2.3961,-674.7139
2.3966,-507.1622
2.3971,-360.6689
2.3976,-260.5651
2.3981,-190.0652
2.3986,-119.8705
2.3991,-35.0264
2.3996,53.4799
2.4001,122.7591
2.4006,158.7720
2.4011,168.2330
2.4016,168.8434
2.4021,176.1681
2.4026,202.1096
2.4031,257.6550
2.4036,339.4471
2.4041,422.7652
2.4046,484.7196
2.4051,528.0572
2.4056,573.2260
2.4061,622.9727
2.4066,653.4921
2.4071,644.6415
2.4076,602.8299
2.4081,546.3689
2.4086,482.5833
2.4091,405.6743
2.4096,313.5056
2.4101,221.0317
2.4106,156.9408
2.4111,143.2071
2.4116,169.4538
2.4121,192.6486
2.4126,182.5772
2.4131,157.2460
2.4136,158.4668
2.4141,192.0382
2.4146,219.2005
2.4151,205.7720
2.4156,157.8564
2.4161,91.0189
2.4166,1.5969
2.4171,-112.5458
2.4176,-224.2470
2.4181,-296.5780
2.4186,-326.4871
2.4191,-339.3053
2.4196,-345.7143
2.4201,-325.5715
2.4206,-263.6170
2.4211,-180.9094
2.4216,-119.8705
2.4221,-103.0848
2.4226,-117.1237
2.4231,-136.3510
2.4236,-148.8639
2.4241,-156.4938
2.4246,-160.4613
2.4251,-155.2730
2.4256,-134.5198
2.4261,-100.3380
2.4266,-62.4939
2.4271,-33.1953
2.4276,-17.6304
2.4281,0.9865
2.4286,47.3761
2.4291,115.1292
2.4296,155.7201
2.4301,129.4734
2.4306,58.0579
2.4311,0.0709
2.4316,-25.2602
2.4321,-43.8771
2.4326,-65.8511
2.4331,-64.9355
2.4336,-38.0784
2.4341,-29.5329
2.4346,-64.6303
2.4351,-99.1173
2.4356,-81.7212
2.4361,-26.1758
2.4366,22.0449
2.4371,57.7527
2.4376,94.3760
2.4381,106.2786
2.4386,55.0059
2.4391,-32.5849
2.4396,-82.9420
2.4401,-71.6498
2.4406,-48.1498
2.4411,-57.9160
2.4416,-94.2341
2.4421,-141.5393
2.4426,-204.4093
2.4431,-274.6040
2.4436,-318.5520
2.4441,-324.3507
2.4446,-316.7209
2.4451,-309.7014
2.4456,-289.2534
2.4461,-260.5651
2.4466,-260.5651
2.4471,-292.0001
2.4476,-294.4417
2.4481,-219.3639
2.4486,-93.3186
2.4491,29.6748
2.4496,139.5448
2.4501,243.0057
2.4506,313.2004
2.4511,321.1354
2.4516,295.1939
2.4521,293.3627
2.4526,323.8822
2.4531,348.2977
2.4536,349.8237
2.4541,344.6354
2.4546,333.6484
2.4551,295.4991
2.4556,235.6810
2.4561,194.1746
2.4566,185.0187
2.4571,174.6421
2.4576,139.5448
2.4581,103.5318
2.4586,96.2072
2.4591,102.3110
2.4596,86.7461
2.4601,48.9020
2.4606,21.7397
2.4611,18.6878
2.4616,15.6358
2.4621,-9.3901
2.4626,-45.7082
2.4631,-67.0718
2.4636,-70.4290
2.4641,-74.3965
2.4646,-88.1303
2.4651,-98.8121
2.4656,-96.9809
2.4661,-96.9809
2.4666,-118.6497
2.4671,-157.4094
2.4676,-186.0977
2.4681,-186.4029
2.4686,-163.5133
2.4691,-131.1627
2.4696,-100.3380
2.4701,-80.8056
2.4706,-81.4160
2.4711,-100.0328
2.4716,-122.6172
2.4721,-136.6562
2.4726,-136.0458
2.4731,-119.2601
2.4736,-93.0134
2.4741,-70.7342
2.4746,-52.7277
2.4751,-18.5459
2.4756,40.0514
2.4761,92.2396
2.4766,95.9020
2.4771,52.5644
2.4776,4.9540
2.4781,-17.3252
2.4786,-19.1563
2.4791,-10.9161
2.4796,4.0384
2.4801,13.1943
2.4806,-1.4550
2.4811,-32.8901
2.4816,-56.3900
2.4821,-67.6822
2.4826,-85.6887
2.4831,-111.9354
2.4836,-126.8900
2.4841,-129.6367
2.4846,-143.3704
2.4851,-172.3639
2.4856,-194.0327
2.4861,-205.0197
2.4866,-225.7729
2.4871,-248.6625
2.4876,-229.1301
2.4881,-150.6951
2.4886,-55.7797
2.4891,17.1618
2.4896,82.4734
2.4901,154.1941
2.4906,200.5836
2.4911,188.9863
2.4916,143.2071
2.4921,105.3630
2.4926,73.0124
2.4931,26.3176
2.4936,-11.8317
2.4941,0.6813
2.4946,57.1423
2.4951,102.0059
2.4956,112.3825
2.4961,118.1812
2.4966,145.9538
2.4971,181.3564
2.4976,199.3629
2.4981,196.9213
2.4986,181.0512
2.4991,157.2460
2.4996,140.7655
2.5001,148.7006
2.5006,176.4733
2.5011,197.5317
2.5016,194.4798
2.5021,166.4019
2.5026,112.6877
2.5031,31.5059
2.5036,-57.0004
2.5041,-118.6497
2.5046,-143.9808
2.5051,-157.7146
2.5056,-181.2146
2.5061,-212.0392
2.5066,-247.1365
2.5071,-296.2728
2.5076,-352.1234
2.5081,-375.9286
2.5086,-341.1364
2.5091,-271.8573
2.5096,-216.3119
2.5101,-190.0652
2.5106,-172.9743
2.5111,-156.7990
2.5116,-166.8704
2.5121,-225.4677
2.5126,-314.8897
2.5131,-391.7987
2.5136,-428.1168
2.5141,-426.2857
2.5146,-389.9675
2.5151,-303.5975
2.5156,-155.2730
2.5161,24.4865
2.5166,178.3045
2.5171,275.0511
2.5176,334.5640
2.5181,387.0574
2.5186,433.1418
2.5191,453.8950
2.5196,443.2132
2.5201,410.8626
2.5206,370.8821
2.5211,336.3952
2.5216,309.5381
2.5221,268.0316
2.5226,188.3759
2.5231,89.7981
2.5236,21.7397
2.5241,-2.3706
2.5246,-24.9550
2.5251,-77.4485
2.5256,-133.2990
2.5261,-161.3769
2.5266,-180.9094
2.5271,-224.5522
2.5276,-279.7923
2.5281,-308.7858
2.5286,-307.5650
2.5291,-295.3573
2.5296,-268.5002
2.5301,-206.8509
2.5306,-116.5133
2.5310,-24.6498
2.5315,59.2786
2.5320,142.9019
2.5325,217.9797
2.5330,271.3888
2.5335,312.2848
2.5340,355.9276
2.5345,393.7717
2.5350,405.9795
2.5355,395.6029
2.5360,380.6483
2.5365,359.8951
2.5370,325.7134
2.5375,292.1420
2.5380,276.5771
2.5385,263.1485
2.5390,226.2200
2.5395,180.1356
2.5400,164.5707
2.5405,182.5772
2.5410,196.0057
2.5415,189.5966
2.5420,195.7005
2.5425,240.5641
2.5430,296.4147
2.5435,308.0121
2.5440,254.6031
2.5445,170.6746
2.5450,109.6357
2.5455,92.5448
2.5460,92.5448
2.5465,72.0968
2.5470,33.0319
2.5475,15.6358
2.5480,40.3566
2.5485,72.7072
2.5490,66.6033
2.5495,18.0774
2.5500,-40.5199
2.5505,-89.6562
2.5510,-129.3315
2.5515,-159.8509
2.5520,-182.4353
2.5525,-215.0911
2.5530,-273.0781
2.5535,-342.0520
2.5540,-393.3247
2.5545,-419.2662
2.5550,-428.7272
2.5555,-417.7402
2.5560,-382.3377
2.5565,-344.7988
2.5570,-327.7079
2.5575,-317.0261
2.5580,-289.8638
2.5585,-269.4157
2.5590,-299.3248
2.5595,-359.4481
2.5600,-364.6364
2.5605,-261.4807
2.5610,-85.6887
2.5615,93.7656
2.5620,244.8368
2.5625,362.9471
2.5630,434.9730
2.5635,444.4340
2.5640,394.0769
2.5645,299.4666
2.5650,185.0187
2.5655,92.5448
2.5660,62.6358
2.5665,84.3046
2.5670,100.4799
2.5675,80.0319
2.5680,59.2786
2.5685,79.7267
2.5690,117.2656
2.5695,118.1812
2.5700,86.1357
2.5705,81.2526
2.5710,131.6097
2.5715,188.0707
2.5720,187.4603
2.5725,129.4734
2.5730,67.5189
2.5735,41.8826
2.5740,43.7137
2.5745,42.4929
2.5750,25.7073
2.5755,5.2592
2.5760,-6.3382
2.5765,-12.1369
2.5770,-19.4615
2.5775,-30.1433
2.5780,-40.5199
2.5785,-49.9810
2.5790,-62.1887
2.5795,-79.2796
2.5800,-97.2861
2.5805,-109.7991
2.5810,-115.9030
2.5815,-117.4289
2.5820,-118.3445
2.5825,-120.7861
2.5830,-126.2796
2.5835,-132.3835
2.5840,-137.8770
2.5845,-146.4224
2.5850,-158.6302
2.5855,-162.2925
2.5860,-138.4873
2.5865,-89.3510
2.5870,-47.8446
2.5875,-48.4550
2.5880,-85.0783
2.5885,-112.5458
2.5890,-97.2861
2.5895,-56.0848
2.5900,-31.6693
2.5905,-38.0784
2.5910,-45.7082
2.5915,-24.0394
2.5920,15.3306
2.5925,34.8631
2.5930,16.8566
2.5935,-18.5459
2.5940,-46.6238
2.5945,-66.1563
2.5950,-81.4160
2.5955,-79.8900
2.5960,-47.5394
2.5965,-0.5395
2.5970,25.4021
2.5975,19.2982
2.5980,-1.4550
2.5985,-28.6174
2.5990,-78.3640
2.5995,-154.3574
2.6000,-220.8898
2.6005,-234.3184
2.6010,-185.4873
2.6015,-90.2666
2.6020,38.5254
2.6025,186.5447
2.6030,316.5575
2.6035,384.0055
2.6040,376.0704
2.6045,315.0316
2.6050,230.1875
2.6055,148.7006
2.6060,97.1227
2.6065,85.5254
2.6070,92.2396
2.6075,83.6942
2.6080,60.8046
2.6085,55.0059
2.6090,80.3371
2.6095,110.5513
2.6100,114.5188
2.6105,94.0708
2.6110,75.4539
2.6115,78.8111
2.6120,102.9214
2.6125,130.0837
2.6130,138.0188
2.6135,112.9929
2.6140,60.1942
2.6145,2.5125
2.6150,-36.2472
2.6155,-46.3186
2.6160,-36.2472
2.6165,-28.9225
2.6170,-42.6563
2.6175,-72.2602
2.6180,-94.5393
2.6185,-99.1173
2.6190,-101.8640
2.6195,-119.2601
2.6200,-145.5068
2.6205,-166.2600
2.6210,-186.0977
2.6215,-219.3639
2.6220,-266.6690
2.6225,-310.3118
2.6230,-335.3377
2.6235,-339.0001
2.6240,-331.6754
2.6245,-324.9611
2.6250,-316.4157
2.6255,-281.0131
2.6260,-195.2535
2.6265,-73.4809
2.6270,37.9150
2.6275,110.5513
2.6280,159.9928
2.6285,214.0122
2.6290,269.5576
2.6295,296.7199
2.6300,268.9472
2.6305,185.9343
2.6310,80.3371
2.6315,3.7333
2.6320,-17.0200
2.6325,-8.7797
2.6330,-15.4940
2.6335,-31.6693
2.6340,-12.4420
2.6345,51.6488
2.6350,111.1617
2.6355,121.5383
2.6360,94.3760
2.6365,65.6877
2.6370,46.7657
2.6375,34.2527
2.6380,35.1683
2.6385,55.0059
2.6390,75.4539
2.6395,76.6747
2.6400,65.3825
2.6405,64.4669
2.6410,81.5578
2.6415,100.7851
2.6420,98.0383
2.6425,62.9410
2.6430,13.4995
2.6435,-17.0200
2.6440,-19.1563
2.6445,-13.6628
2.6450,-15.4940
2.6455,-9.3901
2.6460,5.8696
2.6465,-6.0330
2.6470,-65.2407
2.6475,-115.2926
2.6480,-89.0458
2.6485,-10.3057
2.6490,32.1163
2.6495,8.6164
2.6500,-26.7862
2.6505,-33.8057
2.6510,-37.4680
2.6515,-64.9355
2.6520,-96.6757
2.6525,-111.9354
2.6530,-132.6886
2.6535,-181.5198
2.6540,-235.8444
2.6545,-254.7664
2.6550,-231.5716
2.6555,-186.7081
2.6560,-134.5198
2.6565,-83.8575
2.6570,-49.6758
2.6575,-42.9615
2.6580,-55.1693
2.6585,-67.6822
2.6590,-66.4615
2.6595,-41.4355
2.6600,9.8371
2.6605,67.5189
2.6610,94.6812
2.6615,73.6228
2.6620,23.8761
2.6625,-20.9875
2.6630,-44.4875
2.6635,-46.0134
2.6640,-30.4485
2.6645,-1.4550
2.6650,36.0839
2.6655,79.4215
2.6660,125.5058
2.6665,169.1486
2.6670,203.9408
2.6675,224.0836
2.6680,226.8304
2.6685,212.1810
2.6690,186.8499
2.6695,159.0772
2.6700,129.7785
2.6705,96.5124
2.6710,65.6877
2.6715,44.9345
2.6720,26.3176
2.6725,-1.4550
2.6730,-17.3252
2.6735,21.1293
2.6740,112.9929
2.6745,186.5447
2.6750,174.6421
2.6755,90.7137
2.6760,2.8177
2.6765,-53.0329
2.6770,-93.6238
2.6775,-136.3510
2.6780,-174.8055
2.6785,-204.1041
2.6790,-234.3184
2.6795,-264.8378
2.6800,-283.7599
2.6805,-297.4936
2.6810,-315.8053
2.6815,-306.0391
2.6820,-208.0717
2.6825,-28.0070
2.6830,134.3565
2.6835,193.5642
2.6840,178.9148
2.6845,181.0512
2.6850,225.6096
2.6855,264.6745
2.6860,278.7134
2.6865,311.3692
2.6870,384.9211
2.6875,445.0444
2.6880,424.5963
2.6885,330.5965
2.6890,222.8628
2.6895,138.3240
2.6900,65.6877
2.6905,-18.8511
2.6910,-123.5328
2.6915,-233.7080
2.6920,-313.6689
2.6925,-323.1300
2.6930,-254.1560
2.6935,-151.6107
2.6940,-79.2796
2.6945,-71.6498
2.6950,-121.0913
2.6955,-196.7795
2.6960,-267.5846
2.6965,-318.5520
2.6970,-353.9546
2.6975,-375.6234
2.6980,-357.6169
2.6985,-271.5521
2.6990,-137.2666
2.6995,-22.8187
2.7000,30.2852
2.7005,52.5644
2.7010,99.8695
2.7015,183.7980
2.7020,274.7459
2.7025,348.6029
2.7030,399.2652
2.7035,416.6613
2.7040,387.6678
2.7045,322.6614
2.7050,257.6550
2.7055,222.5576
2.7060,217.6745
2.7065,222.2525
2.7070,212.4862
2.7075,177.9993
2.7080,130.3889
2.7085,92.2396
2.7090,73.3176
2.7095,64.1617
2.7100,52.5644
2.7105,40.9670
2.7110,36.9994
2.7115,39.1358
2.7120,37.3046
2.7125,28.4540
2.7130,16.5514
2.7135,4.3436
2.7140,-6.9485
2.7145,-16.4096
2.7150,-22.8187
2.7155,-28.9225
2.7160,-37.4680
2.7165,-46.3186
2.7170,-54.8641
2.7175,-67.9874
2.7180,-89.3510
2.7185,-112.2406
2.7190,-127.5003
2.7195,-135.4354
2.7200,-141.8445
2.7205,-145.8120
2.7210,-141.8445
2.7215,-131.4679
2.7220,-123.2276
2.7225,-120.4809
2.7230,-123.5328
2.7235,-139.4029
2.7240,-178.4678
2.7245,-231.5716
2.7250,-268.5002
2.7255,-264.2274
2.7260,-224.2470
2.7265,-176.6366
2.7270,-137.8770
2.7275,-99.7276
2.7280,-43.2667
2.7285,34.8631
2.7290,116.0448
2.7295,174.6421
2.7300,198.1421
2.7305,192.9538
2.7310,173.4213
2.7315,150.5318
2.7320,134.9669
2.7325,132.2201
2.7330,129.7785
2.7335,104.7526
2.7340,51.6488
2.7345,-8.4745
2.7350,-59.1368
2.7355,-104.9160
2.7360,-144.8964
2.7365,-152.5263
2.7370,-101.2536
2.7375,-8.1693
2.7380,81.5578
2.7385,139.2396
2.7390,158.7720
2.7395,138.3240
2.7400,79.7267
2.7405,8.0060
2.7410,-43.5719
2.7415,-65.8511
2.7420,-68.5978
2.7425,-57.3056
2.7430,-32.2797
2.7435,-7.5589
2.7440,-0.2343
2.7445,-5.4226
2.7450,-4.8122
2.7455,4.9540
2.7460,12.5839
2.7465,13.1943
2.7470,4.6488
2.7475,-28.0070
2.7480,-102.1692
2.7485,-201.9678
2.7490,-282.2339
2.7495,-303.9027
2.7500,-265.1430
2.7505,-200.4418
2.7510,-158.9354
2.7515,-161.6821
2.7520,-168.0912
2.7525,-110.4095
2.7530,21.7397
2.7535,152.6681
2.7540,204.8564
2.7545,188.0707
2.7550,169.7590
2.7555,177.0837
2.7560,177.6941
2.7565,146.8694
2.7570,106.2786
2.7575,83.3890
2.7580,73.6228
2.7585,66.6033
2.7590,73.3176
2.7595,104.1422
2.7600,134.6617
2.7605,126.7266
2.7610,78.8111
2.7615,29.9800
2.7620,10.7527
2.7625,14.7203
2.7630,24.7917
2.7635,40.9670
2.7640,65.9929
2.7645,82.1682
2.7650,67.8241
2.7655,38.2202
2.7660,34.5579
2.7665,66.6033
2.7670,90.4085
2.7675,58.9734
2.7680,-17.9355
2.7685,-82.6368
2.7690,-91.4874
2.7695,-55.4745
2.7700,-24.9550
2.7705,-36.8576
2.7710,-78.9744
2.7715,-106.7471
2.7720,-93.3186
2.7725,-56.6952
2.7730,-23.1239
2.7735,14.7203
2.7740,71.1812
2.7745,117.8760
2.7750,110.2461
2.7755,66.2981
2.7760,53.1747
2.7765,86.1357
2.7770,98.9539
2.7775,44.6293
2.7780,-33.5005
2.7785,-82.6368
2.7790,-126.2796
2.7795,-211.1236
2.7800,-309.3962
2.7805,-357.0065
2.7810,-359.4481
2.7815,-372.2663
2.7820,-389.9675
2.7825,-347.2403
2.7830,-241.6430
2.7835,-160.4613
2.7840,-154.3574
2.7845,-157.1042
2.7850,-88.1303
2.7855,31.8111
2.7860,129.1682
2.7865,184.7135
2.7870,232.6291
2.7875,275.0511
2.7880,274.7459
2.7885,232.6291
2.7890,203.9408
2.7895,222.5576
2.7900,255.8238
2.7905,254.9083
2.7910,221.3369
2.7915,193.5642
2.7920,190.8174
2.7925,193.2590
2.7930,177.0837
2.7935,142.2915
2.7940,106.2786
2.7945,76.0643
2.7950,42.1878
2.7955,-6.9485
2.7960,-67.0718
2.7965,-118.9549
2.7970,-147.0328
2.7975,-150.0847
2.7980,-135.1302
2.7985,-109.7991
2.7990,-82.0264
2.7995,-63.4095
2.8000,-64.9355
2.8005,-83.2472
2.8010,-100.0328
2.8015,-94.8445
2.8020,-61.5783
2.8025,-14.2732
2.8030,21.4345
2.8035,28.1488
2.8040,9.5319
2.8045,-11.2213
2.8050,-16.1044
2.8055,-7.2537
2.8060,-1.1499
2.8065,-4.5070
2.8070,-7.8641
2.8075,-2.6758
2.8080,7.3956
2.8085,14.1099
2.8090,13.8047
2.8095,8.6164
2.8100,1.9021
2.8105,-2.6758
2.8110,-3.2862
2.8115,-2.6758
2.8120,-5.7278
2.8125,-10.6109
2.8130,-12.4420
2.8135,-14.8836
2.8140,-26.4810
2.8145,-40.2147
2.8150,-36.2472
2.8155,-8.4745
2.8160,24.4865
2.8165,47.3761
2.8170,64.7721
2.8175,84.6098
2.8180,96.2072
2.8185,87.3565
2.8190,67.2137
2.8195,53.4799
2.8200,47.0709
2.8205,38.2202
2.8210,28.1488
2.8215,26.0124
2.8220,30.2852
2.8225,29.0644
2.8230,20.2138
2.8235,10.7527
2.8240,1.5969
2.8245,-12.1369
2.8250,-27.7018
2.8255,-35.9420
2.8260,-38.3836
2.8265,-43.2667
2.8270,-49.6758
2.8275,-50.2862
2.8280,-45.0979
2.8285,-40.2147
2.8290,-36.5524
2.8295,-28.9225
2.8300,-19.7667
2.8305,-16.1044
2.8310,-16.4096
2.8315,-14.5784
2.8320,-12.7472
2.8325,-16.4096
2.8330,-20.3771
2.8335,-10.9161
2.8340,10.1423
2.8345,22.0449
2.8350,11.0579
2.8355,-9.6953
2.8360,-17.0200
2.8365,-6.3382
2.8370,4.0384
2.8375,0.6813
2.8380,-6.0330
2.8385,0.3761
2.8390,18.3826
2.8395,26.0124
2.8400,9.8371
2.8405,-12.4420
2.8410,-14.8836
2.8415,2.2073
2.8420,16.8566
2.8425,15.9410
2.8430,9.8371
2.8435,10.4475
2.8440,13.1943
2.8445,8.6164
2.8450,-3.2862
2.8455,-16.1044
2.8460,-25.2602
2.8465,-26.1758
2.8470,-16.1044
2.8475,0.3761
2.8480,14.7203
2.8485,26.3176
2.8490,43.1033
2.8495,63.5514
2.8500,71.1812
2.8505,53.1747
2.8510,22.3501
2.8515,0.9865
2.8520,-3.8966
2.8525,-7.5589
2.8530,-22.2083
2.8535,-39.6044
2.8540,-44.7927
2.8545,-35.0264
2.8550,-26.1758
2.8555,-30.4485
2.8560,-42.3511
2.8565,-48.1498
2.8570,-43.8771
2.8575,-36.5524
2.8580,-30.4485
2.8585,-22.5135
2.8590,-15.1888
2.8595,-17.0200
2.8600,-22.2083
2.8605,-8.7797
2.8610,32.4215
2.8615,78.2007
2.8620,95.2916
2.8625,79.1163
2.8630,54.0903
2.8635,38.8306
2.8640,26.6228
2.8645,5.8696
2.8650,-18.5459
2.8655,-29.5329
2.8660,-18.2407
2.8665,3.7333
2.8670,17.4670
2.8675,11.9735
2.8680,-7.5589
2.8685,-27.0914
2.8690,-37.1628
2.8695,-38.0784
2.8700,-31.9745
2.8705,-17.0200
2.8710,7.3956
2.8715,32.1163
2.8720,39.4410
2.8725,20.5189
2.8730,-11.8317
2.8735,-31.6693
2.8740,-23.1239
2.8745,2.2073
2.8750,20.8241
2.8755,21.1293
2.8760,12.5839
2.8765,3.4281
2.8770,-8.7797
2.8775,-25.5654
2.8780,-31.0589
2.8785,-9.3901
2.8790,27.5384
2.8795,50.4280
2.8800,47.6812
2.8805,34.8631
2.8810,24.7917
2.8815,6.1748
2.8820,-32.8901
2.8825,-78.0588
2.8830,-100.6432
2.8835,-96.9809
2.8840,-89.9614
2.8845,-97.5913
2.8850,-110.7146
2.8855,-111.0198
2.8860,-95.7601
2.8865,-81.1108
2.8870,-83.8575
2.8875,-103.6952
2.8880,-121.7016
2.8885,-120.4809
2.8890,-106.4419
2.8895,-105.8315
2.8900,-120.4809
2.8905,-110.4095
2.8910,-40.2147
2.8915,60.8046
2.8920,126.7266
2.8925,137.4084
2.8930,144.7331
2.8935,196.9213
2.8940,267.7264
2.8945,296.1095
2.8950,265.5901
2.8955,217.0641
2.8960,188.9863
2.8965,177.3889
2.8970,158.7720
2.8975,122.1487
2.8980,74.8436
2.8985,34.5579
2.8990,18.9930
2.8995,32.4215
2.9000,56.5319
2.9005,63.5514
2.9010,42.7981
2.9015,10.1423
2.9020,-11.5265
2.9025,-15.1888
2.9030,-9.0849
2.9035,-7.2537
2.9040,-14.8836
2.9045,-25.2602
2.9050,-27.7018
2.9055,-20.6823
2.9060,-14.8836
2.9065,-16.4096
2.9070,-16.7148
2.9075,-7.2537
2.9080,5.5644
2.9085,7.0904
2.9090,-3.2862
2.9095,-12.1369
2.9100,-9.6953
2.9105,-3.5914
2.9110,-2.9810
2.9115,-7.2537
2.9120,-10.9161
2.9125,-13.9680
2.9130,-17.9355
2.9135,-18.5459
2.9140,-12.4420
2.9145,-5.4226
2.9150,-4.5070
2.9155,-8.4745
2.9160,-10.9161
2.9165,-12.4420
2.9170,-20.0719
2.9175,-32.8901
2.9180,-42.3511
2.9185,-42.6563
2.9190,-39.2992
2.9195,-38.9940
2.9200,-39.9095
2.9205,-38.3836
2.9210,-35.6368
2.9215,-33.8057
2.9220,-32.5849
2.9225,-30.7537
2.9230,-28.9225
2.9235,-29.2277
2.9240,-28.0070
2.9245,-21.9031
2.9250,-13.0524
2.9255,-6.6434
2.9260,-3.8966
2.9265,-2.0654
2.9270,0.0709
2.9275,0.0709
2.9280,-3.8966
2.9285,-11.5265
2.9290,-21.5979
2.9295,-31.3641
2.9300,-38.6888
2.9305,-42.3511
2.9310,-44.4875
2.9315,-45.4030
2.9320,-45.7082
2.9325,-43.8771
2.9330,-40.5199
2.9335,-36.2472
2.9340,-30.7537
2.9345,-23.1239
2.9350,-14.8836
2.9355,-7.2537
2.9360,-1.1499
2.9365,2.8177
2.9370,5.2592
2.9375,5.2592
2.9380,3.4281
2.9385,0.6813
2.9390,0.3761
2.9395,1.9021
2.9400,4.9540
2.9405,7.3956
2.9410,8.9216
2.9415,9.8371
2.9420,9.8371
2.9425,9.2268
2.9430,8.9216
2.9435,9.8371
2.9440,10.7527
2.9445,10.7527
2.9450,11.9735
2.9455,16.2462
2.9460,21.1293
2.9465,23.2657
2.9470,24.1813
2.9475,27.5384
2.9480,32.1163
2.9485,31.5059
2.9490,23.5709
2.9495,16.2462
2.9500,17.1618
2.9505,23.8761
2.9510,27.8436
2.9515,25.7073
2.9520,19.9086
2.9525,13.8047
2.9530,8.9216
2.9535,6.4800
2.9540,6.1748
2.9545,5.8696
2.9550,4.6488
2.9555,3.7333
2.9560,3.4281
2.9565,1.5969
2.9570,-2.3706
2.9575,-6.6434
2.9580,-6.9485
2.9585,-2.9810
2.9590,2.2073
2.9595,8.0060
2.9600,13.8047
2.9605,17.4670
2.9610,16.2462
2.9615,11.0579
2.9620,6.1748
2.9625,4.0384
2.9630,2.8177
2.9635,-1.1499
2.9640,-7.2537
2.9645,-11.2213
2.9650,-10.9161
2.9655,-8.1693
2.9660,-6.9485
2.9665,-7.8641
2.9670,-8.7797
2.9675,-7.8641
2.9680,-6.6434
2.9685,-6.0330
2.9690,-4.8122
2.9695,-1.7602
2.9700,1.2917
2.9705,2.2073
2.9710,1.5969
2.9715,1.9021
2.9720,4.0384
2.9725,6.1748
2.9730,6.4800
2.9735,5.8696
2.9740,5.2592
2.9745,4.6488
2.9750,3.7333
2.9755,2.2073
2.9760,1.2917
2.9765,0.6813
2.9770,0.0709
2.9775,-1.1499
2.9780,-2.6758
2.9785,-2.9810
2.9790,-1.1499
2.9795,1.5969
2.9800,2.5125
2.9805,0.9865
2.9810,-0.8447
2.9815,-1.4550
2.9820,-1.4550
2.9825,-2.9810
2.9830,-5.4226
2.9835,-7.2537
2.9840,-7.8641
2.9845,-8.4745
2.9850,-9.6953
2.9855,-10.9161
2.9860,-9.6953
2.9865,-7.5589
2.9870,-6.6434
2.9875,-7.2537
2.9880,-7.5589
2.9885,-5.4226
2.9890,-2.6758
2.9895,-1.7602
2.9900,-2.6758
2.9905,-3.2862
2.9910,-1.7602
2.9915,0.3761
2.9920,1.2917
2.9925,3.1229
2.9930,6.1748
2.9935,9.8371
2.9940,11.6683
2.9945,11.6683
2.9950,11.6683
2.9955,11.9735
2.9960,9.5319
2.9965,3.4281
2.9970,-3.8966
2.9975,-8.4745
2.9980,-8.4745
2.9985,-5.7278
2.9990,-3.2862
2.9995,-2.9810
3.0000,-3.5914
3.0005,-4.2018
3.0010,-3.8966
3.0015,-3.5914
3.0020,-4.2018
3.0025,-5.1174
3.0030,-6.3382
3.0035,-6.9485
3.0040,-8.1693
3.0045,-9.0849
3.0050,-9.6953
3.0055,-9.0849
3.0060,-8.4745
3.0065,-9.3901
3.0070,-11.5265
3.0075,-12.7472
3.0080,-11.5265
3.0085,-7.8641
3.0090,-5.1174
3.0095,-3.5914
3.0100,-1.7602
3.0105,0.0709
3.0110,0.6813
3.0115,0.0709
3.0120,-0.5395
3.0125,0.0709
3.0130,0.6813
3.0135,0.0709
3.0140,-1.4550
3.0145,-0.8447
3.0150,1.9021
3.0155,4.3436
3.0160,3.1229
3.0165,0.0709
3.0170,-3.2862
3.0175,-6.6434
3.0180,-10.3057
3.0185,-13.6628
3.0190,-13.0524
3.0195,-6.9485
3.0200,0.6813
3.0205,6.4800
3.0210,9.2268
3.0215,11.3631
3.0220,12.2787
3.0225,9.5319
3.0230,2.2073
3.0235,-4.5070
3.0240,-5.1174
3.0245,0.0709
3.0250,3.4281
3.0255,0.3761
3.0260,-8.7797
3.0265,-16.1044
3.0270,-15.1888
3.0275,-8.1693
3.0280,-1.4550
3.0285,0.0709
3.0290,-3.2862
3.0295,-8.4745
3.0300,-14.2732
3.0305,-20.3771
3.0310,-24.9550
3.0315,-24.9550
3.0320,-21.5979
3.0325,-18.5459
3.0330,-18.5459
3.0335,-18.5459
3.0340,-16.4096
3.0345,-13.6628
3.0350,-12.1369
3.0355,-10.6109
3.0360,-6.3382
3.0365,0.3761
3.0370,8.9216
3.0375,18.6878
3.0380,28.7592
3.0385,35.7787
3.0390,36.9994
3.0395,34.8631
3.0400,33.9475
3.0405,34.8631
3.0410,34.2527
3.0415,29.9800
3.0420,23.5709
3.0425,15.6358
3.0430,4.6488
3.0435,-5.7278
3.0440,-9.6953
3.0445,-4.8122
3.0450,2.2073
3.0455,6.1748
3.0460,8.3112
3.0465,12.2787
3.0470,15.9410
3.0475,15.9410
3.0480,13.4995
3.0485,11.6683
3.0490,11.3631
3.0495,9.8371
3.0500,6.7852
3.0505,5.2592
3.0510,5.8696
3.0515,4.9540
3.0520,0.3761
3.0525,-6.3382
3.0530,-10.3057
3.0535,-8.7797
3.0540,-2.9810
3.0545,3.4281
3.0550,8.3112
3.0555,9.5319
3.0560,8.0060
3.0565,5.2592
3.0570,3.4281
3.0575,3.1229
3.0580,3.7333
3.0585,4.0384
3.0590,3.1229
3.0595,1.5969
3.0600,1.2917
3.0605,2.5125
3.0610,4.3436
3.0615,3.7333
3.0620,0.9865
3.0625,-1.7602
3.0630,-1.1499
3.0635,2.2073
3.0640,6.4800
3.0645,9.2268
3.0650,10.4475
3.0655,12.2787
3.0660,14.7203
3.0665,17.1618
3.0670,20.5189
3.0675,24.7917
3.0680,27.2332
3.0685,26.6228
3.0690,25.0969
3.0695,25.7073
3.0700,24.4865
3.0705,14.7203
3.0710,-2.0654
3.0715,-15.4940
3.0720,-16.4096
3.0725,-10.0005
3.0730,-4.8122
3.0735,-4.5070
3.0740,-6.0330
3.0745,-10.0005
3.0750,-18.5459
3.0755,-25.2602
3.0760,-20.3771
3.0765,-4.2018
3.0770,10.7527
3.0775,12.5839
3.0780,3.4281
3.0785,-3.5914
3.0790,-2.3706
3.0795,5.5644
3.0800,15.9410
3.0805,25.0969
3.0810,30.8956
3.0815,32.1163
3.0820,32.4215
3.0825,36.6943
3.0830,42.1878
3.0835,39.4410
3.0840,25.4021
3.0845,8.6164
3.0850,-1.4550
3.0855,-11.2213
3.0860,-30.4485
3.0865,-53.0329
3.0870,-58.5264
3.0875,-38.0784
3.0880,-10.6109
3.0885,-1.7602
3.0890,-12.7472
3.0895,-22.5135
3.0900,-14.8836
3.0905,4.0384
3.0910,18.9930
3.0915,21.7397
3.0920,15.6358
3.0925,6.4800
3.0930,-1.4550
3.0934,-6.6434
3.0939,-8.1693
3.0944,-9.3901
3.0949,-10.6109
3.0954,-9.0849
3.0959,-2.6758
3.0964,3.7333
3.0969,4.3436
3.0974,-0.8447
3.0979,-6.6434
3.0984,-7.8641
3.0989,-6.9485
3.0994,-7.5589
3.0999,-9.3901
3.1004,-9.6953
3.1009,-8.4745
3.1014,-7.2537
3.1019,-6.3382
3.1024,-4.5070
3.1029,-2.3706
3.1034,-2.0654
3.1039,-4.5070
3.1044,-7.8641
3.1049,-9.0849
3.1054,-7.5589
3.1059,-5.1174
3.1064,-3.8966
3.1069,-3.5914
3.1074,-3.5914
3.1079,-4.5070
3.1084,-6.0330
3.1089,-7.2537
3.1094,-6.0330
3.1099,-3.5914
3.1104,-2.6758
3.1109,-3.2862
3.1114,-2.6758
3.1119,-1.1499
3.1124,-1.1499
3.1129,-2.3706
3.1134,-2.6758
3.1139,-0.2343
3.1144,0.9865
3.1149,0.3761
3.1154,-1.1499
3.1159,-0.2343
3.1164,0.0709
3.1169,-1.7602
3.1174,-4.8122
3.1179,-6.3382
3.1184,-7.5589
3.1189,-10.6109
3.1194,-13.3576
3.1199,-12.1369
3.1204,-7.5589
3.1209,-4.5070
3.1214,-5.7278
3.1219,-8.1693
3.1224,-7.5589
3.1229,-4.5070
3.1234,-2.9810
3.1239,-4.8122
3.1244,-6.6434
3.1249,-4.5070
3.1254,0.9865
3.1259,7.7008
3.1264,12.5839
3.1269,15.0254
3.1274,11.9735
3.1279,-0.2343
3.1284,-18.8511
3.1289,-30.1433
3.1294,-23.7342
3.1299,-6.9485
3.1304,4.0384
3.1309,4.6488
3.1314,6.1748
3.1319,16.5514
3.1324,25.0969
3.1329,16.5514
3.1334,-5.1174
3.1339,-20.6823
3.1344,-18.5459
3.1349,-6.0330
3.1354,2.2073
3.1359,2.8177
3.1364,-0.2343
3.1369,-5.1174
3.1374,-9.0849
3.1379,-7.5589
3.1384,-2.0654
3.1389,-2.9810
3.1394,-17.6304
3.1399,-35.9420
3.1404,-38.6888
3.1409,-21.9031
3.1414,-0.2343
3.1419,13.4995
3.1424,21.7397
3.1429,32.1163
3.1434,46.7657
3.1439,61.4150
3.1444,68.7397
3.1449,62.0254
3.1454,38.2202
3.1459,7.3956
3.1464,-13.9680
3.1469,-21.9031
3.1474,-24.6498
3.1479,-29.2277
3.1484,-32.8901
3.1489,-36.8576
3.1494,-48.1498
3.1499,-62.7991
3.1504,-60.0524
3.1509,-28.6174
3.1514,12.2787
3.1519,33.0319
3.1524,31.2008
3.1529,29.9800
3.1534,40.9670
3.1539,47.6812
3.1544,32.4215
3.1549,6.4800
3.1554,-2.6758
3.1559,14.4151
3.1564,38.8306
3.1569,44.0189
3.1574,24.4865
3.1579,-2.9810
3.1584,-20.3771
3.1589,-23.1239
3.1594,-16.4096
3.1599,-7.8641
3.1604,0.6813
3.1609,8.6164
3.1614,13.1943
3.1619,15.3306
3.1624,20.5189
3.1629,31.8111
3.1634,44.3241
3.1639,51.6488
3.1644,56.5319
3.1649,65.9929
3.1654,76.9799
3.1659,76.0643
3.1664,61.7202
3.1669,48.5968
3.1674,47.0709
3.1679,46.1553
3.1684,32.4215
3.1689,11.9735
3.1694,0.3761
3.1699,-3.5914
3.1704,-15.1888
3.1709,-37.7732
3.1714,-55.4745
3.1719,-58.5264
3.1724,-53.9485
3.1729,-54.8641
3.1734,-63.1043
3.1739,-77.4485
3.1744,-99.4225
3.1749,-127.1951
3.1754,-152.5263
3.1759,-167.7860
3.1764,-170.5328
3.1769,-160.1561
3.1774,-138.1821
3.1779,-111.0198
3.1784,-85.0783
3.1789,-59.7472
3.1794,-33.1953
3.1799,-15.4940
3.1804,-16.1044
3.1809,-20.9875
3.1814,-10.0005
3.1819,11.0579
3.1824,15.3306
3.1829,-3.2862
3.1834,-17.3252
3.1839,-2.9810
3.1844,26.9280
3.1849,46.7657
3.1854,54.0903
3.1859,67.2137
3.1864,94.3760
3.1869,123.6747
3.1874,141.3759
3.1879,142.2915
3.1884,128.8630
3.1889,108.4149
3.1894,90.7137
3.1899,80.6422
3.1904,77.2851
3.1909,79.1163
3.1914,86.1357
3.1919,96.2072
3.1924,105.0578
3.1929,110.5513
3.1934,112.0773
3.1939,106.5838
3.1944,91.6292
3.1949,72.4020
3.1954,55.3111
3.1959,36.3891
3.1964,6.7852
3.1969,-30.7537
3.1974,-64.0199
3.1979,-83.2472
3.1984,-86.9095
3.1989,-72.5653
3.1994,-42.6563
3.1999,-14.2732
3.2004,-5.7278
3.2009,-15.1888
3.2014,-25.5654
3.2019,-31.0589
3.2024,-40.5199
3.2029,-53.9485
3.2034,-60.3576
3.2039,-56.6952
3.2044,-50.5913
3.2049,-41.4355
3.2054,-21.5979
3.2059,-3.8966
3.2064,-14.5784
3.2069,-55.4745
3.2074,-91.7926
3.2079,-97.2861
3.2084,-85.3835
3.2089,-82.3316
3.2094,-84.7731
3.2099,-68.5978
3.2104,-31.6693
3.2109,-0.8447
3.2114,0.3761
3.2119,-23.1239
3.2124,-46.9290
3.2129,-52.1173
3.2134,-38.9940
3.2139,-20.9875
3.2144,-9.6953
3.2149,-4.2018
3.2154,3.4281
3.2159,16.2462
3.2164,29.3696
3.2169,38.8306
3.2174,44.3241
3.2179,46.7657
3.2184,49.5124
3.2189,60.8046
3.2194,83.3890
3.2199,106.8890
3.2204,116.6552
3.2209,108.4149
3.2214,89.7981
3.2219,67.2137
3.2224,44.3241
3.2229,25.0969
3.2234,11.9735
3.2239,3.4281
3.2244,-0.5395
3.2249,8.0060
3.2254,34.8631
3.2259,64.1617
3.2264,69.6552
3.2269,37.9150
3.2274,-18.8511
3.2279,-75.3121
3.2284,-104.0004
3.2289,-91.4874
3.2294,-47.2342
3.2299,1.9021
3.2304,36.9994
3.2309,53.7851
3.2314,51.6488
3.2319,28.4540
3.2324,-7.8641
3.2329,-38.9940
3.2334,-62.4939
3.2339,-96.6757
3.2344,-143.9808
3.2349,-169.9224
3.2354,-144.8964
3.2359,-88.7407
3.2364,-47.8446
3.2369,-39.9095
3.2374,-41.1303
3.2379,-27.0914
3.2384,1.2917
3.2389,28.7592
3.2394,43.7137
3.2399,46.4605
3.2404,50.4280
3.2409,67.8241
3.2414,88.5773
3.2419,87.9669
3.2424,62.0254
3.2429,40.3566
3.2434,45.8501
3.2439,60.4994
3.2444,54.0903
3.2449,32.7267
3.2454,23.2657
3.2459,32.1163
3.2464,41.8826
3.2469,44.6293
3.2474,45.5449
3.2479,41.2722
3.2484,26.3176
3.2489,12.5839
3.2494,14.1099
3.2499,16.2462
3.2504,-5.1174
3.2509,-39.2992
3.2514,-47.2342
3.2519,-19.7667
3.2524,5.8696
3.2529,-0.8447
3.2534,-27.3966
3.2539,-41.1303
3.2544,-37.4680
3.2549,-35.6368
3.2554,-44.7927
3.2559,-53.0329
3.2564,-49.3706
3.2569,-38.9940
3.2574,-35.3316
3.2579,-38.9940
3.2584,-34.4160
3.2589,-11.2213
3.2594,21.1293
3.2599,45.8501
3.2604,62.3306
3.2609,80.6422
3.2614,97.1227
3.2619,94.6812
3.2624,70.8760
3.2629,44.6293
3.2634,28.4540
3.2639,12.8891
3.2644,-6.9485
3.2649,-15.4940
3.2654,2.2073
3.2659,33.9475
3.2664,57.4475
3.2669,66.2981
3.2674,65.0773
3.2679,51.9540
3.2684,26.6228
3.2689,0.0709
3.2694,-15.7992
3.2699,-16.1044
3.2704,0.0709
3.2709,26.9280
3.2714,39.4410
3.2719,6.4800
3.2724,-72.8705
3.2729,-166.8704
3.2734,-246.5262
3.2739,-307.2598
3.2744,-340.5260
3.2749,-323.1300
3.2754,-254.7664
3.2759,-176.3314
3.2764,-127.5003
3.2769,-104.6108
3.2774,-81.4160
3.2779,-48.4550
3.2784,-12.4420
3.2789,27.2332
3.2794,73.6228
3.2799,112.0773
3.2804,123.6747
3.2809,109.6357
3.2814,84.3046
3.2819,58.6682
3.2824,42.7981
3.2829,52.2592
3.2834,89.1877
3.2839,132.2201
3.2844,155.7201
3.2849,156.3305
3.2854,149.0058
3.2859,137.7136
3.2864,112.6877
3.2869,71.1812
3.2874,26.9280
3.2879,-4.8122
3.2884,-25.5654
3.2889,-49.0654
3.2894,-83.5523
3.2899,-119.2601
3.2904,-137.2666
3.2909,-133.9094
3.2914,-123.5328
3.2919,-115.2926
3.2924,-100.0328
3.2929,-70.1238
3.2934,-43.2667
3.2939,-40.5199
3.2944,-54.5589
3.2949,-62.1887
3.2954,-58.5264
3.2959,-59.4420
3.2964,-64.6303
3.2969,-55.1693
3.2974,-24.0394
3.2979,7.0904
3.2984,20.8241
3.2989,28.4540
3.2994,49.8176
3.2999,77.8955
3.3004,85.8306
3.3009,65.3825
3.3014,38.2202
3.3019,30.5904
3.3024,44.9345
3.3029,65.0773
3.3034,78.5059
3.3039,87.3565
3.3044,99.2591
3.3049,114.8240
3.3054,130.0837
3.3059,139.8500
3.3064,137.7136
3.3069,115.7396
3.3074,74.8436
3.3079,30.5904
3.3084,0.6813
3.3089,-11.5265
3.3094,-13.9680
3.3099,-8.7797
3.3104,7.3956
3.3109,30.5904
3.3114,47.3761
3.3119,52.2592
3.3124,52.5644
3.3129,53.1747
3.3134,49.8176
3.3139,40.6618
3.3144,32.7267
3.3149,32.4215
3.3154,35.7787
3.3159,38.2202
3.3164,40.0514
3.3169,39.1358
3.3174,27.2332
3.3179,0.0709
3.3184,-31.9745
3.3189,-55.1693
3.3194,-68.2926
3.3199,-78.9744
3.3204,-88.1303
3.3209,-90.5718
3.3214,-85.0783
3.3219,-77.4485
3.3224,-71.9550
3.3229,-64.3251
3.3234,-49.9810
3.3239,-31.0589
3.3244,-15.1888
3.3249,-7.5589
3.3254,-6.6434
3.3259,-6.6434
3.3264,-3.8966
3.3269,0.9865
3.3274,7.3956
3.3279,14.4151
3.3284,23.2657
3.3289,32.4215
3.3294,38.2202
3.3299,38.5254
3.3304,34.5579
3.3309,31.8111
3.3314,33.3371
3.3319,36.6943
3.3324,40.3566
3.3329,45.8501
3.3334,55.6163
3.3339,66.9085
3.3344,72.4020
3.3349,68.1293
3.3354,58.0579
3.3359,47.3761
3.3364,34.5579
3.3369,14.1099
3.3374,-11.2213
3.3379,-33.8057
3.3384,-46.3186
3.3389,-49.0654
3.3394,-47.2342
3.3399,-44.4875
3.3404,-41.4355
3.3409,-39.6044
3.3414,-38.3836
3.3419,-35.9420
3.3424,-31.0589
3.3429,-25.8706
3.3434,-23.7342
3.3439,-26.7862
3.3444,-32.2797
3.3449,-34.7212
3.3454,-31.0589
3.3459,-23.4290
3.3464,-14.5784
3.3469,-5.7278
3.3474,3.4281
3.3479,10.4475
3.3484,11.9735
3.3489,8.9216
3.3494,5.8696
3.3499,2.5125
3.3504,-4.5070
3.3509,-16.4096
3.3514,-25.2602
3.3519,-23.7342
3.3524,-17.3252
3.3529,-18.2407
3.3534,-30.4485
3.3539,-42.0459
3.3544,-38.3836
3.3549,-20.0719
3.3554,-0.2343
3.3559,11.6683
3.3564,19.9086
3.3569,28.1488
3.3574,29.3696
3.3579,15.3306
3.3584,-6.3382
3.3589,-16.4096
3.3594,-7.5589
3.3599,7.3956
3.3604,16.2462
3.3609,19.2982
3.3614,23.2657
3.3619,26.6228
3.3624,26.6228
3.3629,26.6228
3.3634,32.1163
3.3639,38.5254
3.3644,39.4410
3.3649,36.9994
3.3654,36.9994
3.3659,36.3891
3.3664,29.3696
3.3669,20.2138
3.3674,19.6034
3.3679,28.4540
3.3684,38.5254
3.3689,44.0189
3.3694,43.7137
3.3699,34.8631
3.3704,16.8566
3.3709,-1.4550
3.3714,-12.4420
3.3719,-20.6823
3.3724,-37.1628
3.3729,-57.6108
3.3734,-69.2082
3.3739,-71.6498
3.3744,-77.1433
3.3749,-85.6887
3.3754,-81.7212
3.3759,-60.6628
3.3764,-36.8576
3.3769,-24.6498
3.3774,-25.2602
3.3779,-34.7212
3.3784,-50.5913
3.3789,-60.3576
3.3794,-48.7602
3.3799,-26.7862
3.3804,-28.6174
3.3809,-66.4615
3.3814,-103.3900
3.3819,-97.5913
3.3824,-54.2537
3.3829,-13.0524
3.3834,3.4281
3.3839,8.3112
3.3844,18.0774
3.3849,32.4215
3.3854,44.3241
3.3859,51.0384
3.3864,47.9864
3.3869,31.2008
3.3874,7.0904
3.3879,-5.1174
3.3884,4.3436
3.3889,26.6228
3.3894,44.9345
3.3899,51.9540
3.3904,50.1228
3.3909,43.7137
3.3914,36.0839
3.3919,31.2008
3.3924,32.7267
3.3929,39.4410
3.3934,45.8501
3.3939,45.2397
3.3944,37.6098
3.3949,29.3696
3.3954,27.8436
3.3959,29.0644
3.3964,20.8241
3.3969,-2.0654
3.3974,-31.0589
3.3979,-51.2017
3.3984,-56.0848
3.3989,-49.6758
3.3994,-39.6044
3.3999,-33.5005
3.4004,-35.9420
3.4009,-44.1823
3.4014,-49.9810
3.4019,-46.9290
3.4024,-38.3836
3.4029,-30.1433
3.4034,-24.0394
3.4039,-18.8511
3.4044,-16.7148
3.4049,-20.3771
3.4054,-25.5654
3.4059,-23.4290
3.4064,-12.7472
3.4069,-2.9810
3.4074,-1.7602
3.4079,-5.7278
3.4084,-6.0330
3.4089,-0.5395
3.4094,3.7333
3.4099,3.7333
3.4104,1.5969
3.4109,2.2073
3.4114,6.4800
3.4119,12.2787
3.4124,18.0774
3.4129,23.2657
3.4134,26.3176
3.4139,25.4021
3.4144,21.1293
3.4149,15.9410
3.4154,12.2787
3.4159,10.4475
3.4164,8.6164
3.4169,5.5644
3.4174,0.9865
3.4179,-2.6758
3.4184,-0.5395
3.4189,10.1423
3.4194,24.7917
3.4199,34.5579
3.4204,36.0839
3.4209,37.6098
3.4214,48.2916
3.4219,66.9085
3.4224,80.9474
3.4229,82.1682
3.4234,75.1487
3.4239,68.1293
3.4244,64.4669
3.4249,61.7202
3.4254,57.1423
3.4259,47.0709
3.4264,28.4540
3.4269,2.8177
3.4274,-20.9875
3.4279,-37.7732
3.4284,-51.5069
3.4289,-66.4615
3.4294,-78.0588
3.4299,-78.6692
3.4304,-71.3446
3.4309,-69.2082
3.4314,-79.2796
3.4319,-97.5913
3.4324,-115.2926
3.4329,-125.9744
3.4334,-127.1951
3.4339,-123.8380
3.4344,-125.0588
3.4349,-128.7211
3.4354,-118.9549
3.4359,-86.2991
3.4364,-46.9290
3.4369,-24.6498
3.4374,-18.2407
3.4379,-5.4226
3.4384,19.6034
3.4389,38.2202
3.4394,38.5254
3.4399,31.8111
3.4404,32.1163
3.4409,35.1683
3.4414,33.3371
3.4419,32.1163
3.4424,38.8306
3.4429,47.0709
3.4434,48.5968
3.4439,49.2072
3.4444,54.3955
3.4449,56.5319
3.4454,45.8501
3.4459,34.8631
3.4464,42.7981
3.4469,69.3501
3.4474,95.5968
3.4479,107.1942
3.4484,105.6682
3.4489,97.4279
3.4494,87.9669
3.4499,85.5254
3.4504,92.2396
3.4509,94.3760
3.4514,73.0124
3.4519,30.8956
3.4524,-8.1693
3.4529,-28.3122
3.4534,-33.5005
3.4539,-31.9745
3.4544,-21.2927
3.4549,1.2917
3.4554,26.0124
3.4559,38.5254
3.4564,39.1358
3.4569,38.2202
3.4574,37.3046
3.4579,21.4345
3.4584,-24.0394
3.4589,-90.5718
3.4594,-143.9808
3.4599,-157.1042
3.4604,-140.3185
3.4609,-130.8575
3.4614,-150.0847
3.4619,-176.9418
3.4624,-176.9418
3.4629,-146.1172
3.4634,-111.3250
3.4639,-90.8770
3.4644,-72.8705
3.4649,-37.7732
3.4654,11.9735
3.4659,59.8890
3.4664,95.9020
3.4669,122.4539
3.4674,138.9344
3.4679,142.2915
3.4684,134.3565
3.4689,121.8435
3.4694,105.3630
3.4699,78.5059
3.4704,40.9670
3.4709,5.8696
3.4714,-12.4420
3.4719,-13.6628
3.4724,-7.2537
3.4729,0.3761
3.4734,7.7008
3.4739,12.5839
3.4744,11.9735
3.4749,7.7008
3.4754,3.7333
3.4759,3.4281
3.4764,5.2592
3.4769,8.9216
3.4774,14.1099
3.4779,18.3826
3.4784,20.2138
3.4789,22.6553
3.4794,28.1488
3.4799,31.5059
3.4804,25.4021
3.4809,11.0579
3.4814,-3.2862
3.4819,-17.0200
3.4824,-33.1953
3.4829,-41.1303
3.4834,-19.7667
3.4839,32.4215
3.4844,84.3046
3.4849,101.3955
3.4854,83.3890
3.4859,58.3631
3.4864,46.7657
3.4869,47.0709
3.4874,47.9864
3.4879,48.5968
3.4884,55.0059
3.4889,70.5708
3.4894,89.7981
3.4899,98.9539
3.4904,86.4409
3.4909,55.6163
3.4914,20.8241
3.4919,-6.6434
3.4924,-28.0070
3.4929,-46.3186
3.4934,-52.7277
3.4939,-39.9095
3.4944,-15.1888
3.4949,2.2073
3.4954,2.5125
3.4959,-8.1693
3.4964,-18.5459
3.4969,-19.7667
3.4974,-10.6109
3.4979,1.5969
3.4984,6.4800
3.4989,0.3761
3.4994,-6.6434
3.4999,-5.1174
3.5004,-1.7602
3.5009,-10.6109
3.5014,-31.6693
3.5019,-49.6758
3.5024,-55.1693
3.5029,-54.5589
3.5034,-54.2537
3.5039,-49.3706
3.5044,-34.4160
3.5049,-17.3252
3.5054,-8.7797
3.5059,-8.1693
3.5064,-8.1693
3.5069,-8.1693
3.5074,-11.2213
3.5079,-14.8836
3.5084,-13.6628
3.5089,-10.0005
3.5094,-11.8317
3.5099,-17.9355
3.5104,-19.7667
3.5109,-13.3576
3.5114,-4.5070
3.5119,1.9021
3.5124,4.3436
3.5129,0.3761
3.5134,-11.2213
3.5139,-22.5135
3.5144,-22.8187
3.5149,-14.2732
3.5154,-6.9485
3.5159,-5.1174
3.5164,-5.1174
3.5169,-5.4226
3.5174,-7.8641
3.5179,-8.7797
3.5184,-4.8122
3.5189,-3.2862
3.5194,-12.4420
3.5199,-23.4290
3.5204,-19.4615
3.5209,-4.8122
3.5214,-2.0654
3.5219,-17.6304
3.5224,-29.2277
3.5229,-16.4096
3.5234,14.1099
3.5239,41.2722
3.5244,49.2072
3.5249,31.2008
3.5254,-8.1693
3.5259,-49.3706
3.5264,-67.3770
3.5269,-60.6628
3.5274,-49.3706
3.5279,-41.7407
3.5284,-23.7342
3.5289,8.6164
3.5294,30.2852
3.5299,21.7397
3.5304,3.7333
3.5309,14.4151
3.5314,56.2267
3.5319,95.9020
3.5324,107.1942
3.5329,96.2072
3.5334,81.2526
3.5339,72.0968
3.5344,70.8760
3.5349,78.2007
3.5354,88.5773
3.5359,87.6617
3.5364,67.8241
3.5369,35.1683
3.5374,-0.2343
3.5379,-42.0459
3.5384,-94.5393
3.5389,-148.8639
3.5394,-181.2146
3.5399,-176.6366
3.5404,-141.8445
3.5409,-95.1497
3.5414,-48.4550
3.5419,-8.7797
3.5424,8.3112
3.5429,-13.3576
3.5434,-67.9874
3.5439,-115.2926
3.5444,-114.6822
3.5449,-66.4615
3.5454,-13.3576
3.5459,5.5644
3.5464,-3.8966
3.5469,-10.0005
3.5474,3.7333
3.5479,19.2982
3.5484,13.4995
3.5489,-8.7797
3.5494,-27.7018
3.5499,-35.3316
3.5504,-42.9615
3.5509,-56.6952
3.5514,-67.3770
3.5519,-66.1563
3.5524,-56.0848
3.5529,-41.7407
3.5534,-23.1239
3.5539,-6.6434
3.5544,-6.3382
3.5549,-20.9875
3.5554,-29.8381
3.5559,-18.2407
3.5564,3.4281
3.5569,16.8566
3.5574,21.1293
3.5579,26.6228
3.5584,33.6423
3.5589,32.7267
3.5594,23.2657
3.5599,13.1943
3.5604,9.2268
3.5609,12.5839
3.5614,21.4345
3.5619,29.0644
3.5624,31.2008
3.5629,36.9994
3.5634,59.5838
3.5639,87.3565
3.5644,86.4409
3.5649,40.0514
3.5654,-24.6498
3.5659,-67.0718
3.5664,-73.4809
3.5669,-57.0004
3.5674,-33.1953
3.5679,-13.9680
3.5684,-12.1369
3.5689,-25.8706
3.5694,-32.5849
3.5699,-14.2732
3.5704,14.1099
3.5709,30.2852
3.5714,40.0514
3.5719,65.6877
3.5724,98.9539
3.5729,105.9734
3.5734,77.8955
3.5739,52.2592
3.5744,60.1942
3.5749,85.8306
3.5754,92.2396
3.5759,71.4864
3.5764,47.6812
3.5769,39.1358
3.5774,38.8306
3.5779,35.7787
3.5784,32.1163
3.5789,32.7267
3.5794,36.3891
3.5799,38.5254
3.5804,38.8306
3.5809,38.8306
3.5814,33.6423
3.5819,20.8241
3.5824,7.7008
3.5829,3.7333
3.5834,6.4800
3.5839,4.6488
3.5844,-4.5070
3.5849,-13.3576
3.5854,-16.4096
3.5859,-17.0200
3.5864,-15.1888
3.5869,-5.4226
3.5874,6.1748
3.5879,-1.4550
3.5884,-39.9095
3.5889,-84.1627
3.5894,-97.8965
3.5899,-76.2277
3.5904,-42.0459
3.5909,-8.4745
3.5914,31.2008
3.5919,73.3176
3.5924,86.7461
3.5929,52.2592
3.5934,-3.2862
3.5939,-34.7212
3.5944,-34.7212
3.5949,-33.5005
3.5954,-45.4030
3.5959,-42.9615
3.5964,-5.7278
3.5969,35.4735
3.5974,30.5904
3.5979,-22.2083
3.5984,-72.8705
3.5989,-84.7731
3.5994,-73.4809
3.5999,-63.1043
3.6004,-46.0134
3.6009,-6.9485
3.6014,35.4735
3.6019,52.2592
3.6024,50.4280
3.6029,61.4150
3.6034,82.7786
3.6039,80.9474
3.6044,49.8176
3.6049,25.4021
3.6054,26.9280
3.6059,26.3176
3.6064,4.6488
3.6069,-9.0849
3.6074,16.5514
3.6079,61.7202
3.6084,83.6942
3.6089,77.8955
3.6094,67.8241
3.6099,59.2786
3.6104,40.3566
3.6109,20.5189
3.6114,25.0969
3.6119,53.1747
3.6124,75.4539
3.6129,76.0643
3.6134,65.3825
3.6139,52.2592
3.6144,33.0319
3.6149,7.7008
3.6154,-16.4096
3.6159,-41.4355
3.6164,-71.0394
3.6169,-93.6238
3.6174,-102.1692
3.6179,-119.8705
3.6184,-175.4159
3.6189,-251.1041
3.6194,-294.7469
3.6199,-288.3378
3.6204,-264.5326
3.6209,-248.0521
3.6214,-221.8054
3.6219,-169.3120
3.6224,-110.4095
3.6229,-69.2082
3.6234,-35.3316
3.6239,10.1423
3.6244,59.8890
3.6249,93.1552
3.6254,115.1292
3.6259,143.2071
3.6264,171.2850
3.6269,179.8304
3.6274,170.9798
3.6279,170.6746
3.6284,185.6291
3.6289,190.8174
3.6294,162.1292
3.6299,106.8890
3.6304,47.6812
3.6309,-1.4550
3.6314,-35.0264
3.6319,-44.1823
3.6324,-25.2602
3.6329,5.2592
3.6334,21.1293
3.6339,11.6683
3.6344,-8.1693
3.6349,-19.1563
3.6354,-15.4940
3.6359,-6.3382
3.6364,-2.0654
3.6369,-6.3382
3.6374,-15.1888
3.6379,-21.2927
3.6384,-18.5459
3.6389,-10.9161
3.6394,-9.3901
3.6399,-18.2407
3.6404,-30.1433
3.6409,-34.7212
3.6414,-31.3641
3.6419,-25.2602
3.6424,-20.3771
3.6429,-17.3252
3.6434,-16.7148
3.6439,-15.7992
3.6444,-8.1693
3.6449,6.1748
3.6454,19.6034
3.6459,23.2657
3.6464,19.6034
3.6469,15.9410
3.6474,11.6683
3.6479,2.5125
3.6484,-10.0005
3.6489,-17.6304
3.6494,-17.3252
3.6499,-13.6628
3.6504,-12.4420
3.6509,-12.7472
3.6514,-11.2213
3.6519,-7.2537
3.6524,-2.9810
3.6529,-0.5395
3.6534,-0.2343
3.6539,0.6813
3.6544,4.0384
3.6549,7.3956
3.6554,8.9216
3.6558,10.4475
3.6563,13.1943
3.6568,15.3306
3.6573,15.3306
3.6578,16.8566
3.6583,22.3501
3.6588,26.6228
3.6593,25.0969
3.6598,22.3501
3.6603,22.9605
3.6608,19.6034
3.6613,4.9540
3.6618,-11.8317
3.6623,-17.3252
3.6628,-15.1888
3.6633,-22.2083
3.6638,-40.8251
3.6643,-56.0848
3.6648,-57.6108
3.6653,-46.3186
3.6658,-25.5654
3.6663,1.9021
3.6668,22.3501
3.6673,18.0774
3.6678,-10.3057
3.6683,-46.6238
3.6688,-77.7537
3.6693,-97.5913
3.6698,-96.3705
3.6703,-67.9874
3.6708,-26.1758
3.6713,0.6813
3.6718,1.9021
3.6723,-13.0524
3.6728,-36.8576
3.6733,-65.8511
3.6738,-81.1108
3.6743,-53.3381
3.6748,19.9086
3.6753,98.0383
3.6758,133.7461
3.6763,122.7591
3.6768,107.1942
3.6773,129.4734
3.6778,181.9668
3.6783,210.6551
3.6788,170.0642
3.6793,79.4215
3.6798,5.8696
3.6803,-6.3382
3.6808,20.5189
3.6813,41.2722
3.6818,41.2722
3.6823,38.5254
3.6828,41.8826
3.6833,41.5774
3.6838,29.9800
3.6843,11.3631
3.6848,-6.9485
3.6853,-20.3771
3.6858,-20.0719
3.6863,-3.5914
3.6868,17.4670
3.6873,24.7917
3.6878,8.0060
3.6883,-30.1433
3.6888,-77.7537
3.6893,-116.8185
3.6898,-134.5198
3.6903,-137.2666
3.6908,-141.5393
3.6913,-147.3380
3.6918,-135.1302
3.6923,-101.8640
3.6928,-76.5329
3.6933,-85.3835
3.6938,-113.1562
3.6943,-116.2081
3.6948,-70.7342
3.6953,5.8696
3.6958,74.8436
3.6963,105.9734
3.6968,98.0383
3.6973,75.1487
3.6978,61.7202
3.6983,62.0254
3.6988,66.9085
3.6993,72.7072
3.6998,80.0319
3.7003,79.7267
3.7008,65.6877
3.7013,52.5644
3.7018,62.9410
3.7023,89.1877
3.7028,94.9864
3.7033,64.4669
3.7038,23.2657
3.7043,2.5125
3.7048,2.5125
3.7053,5.2592
3.7058,6.7852
3.7063,15.0254
3.7068,30.2852
3.7073,44.6293
3.7078,53.4799
3.7083,53.7851
3.7088,38.2202
3.7093,5.5644
3.7098,-28.6174
3.7103,-47.8446
3.7108,-50.8965
3.7113,-49.0654
3.7118,-50.2862
3.7123,-50.8965
3.7128,-46.6238
3.7133,-37.1628
3.7138,-25.2602
3.7143,-11.2213
3.7148,9.5319
3.7153,40.0514
3.7158,62.6358
3.7163,47.6812
3.7168,-11.5265
3.7173,-80.5004
3.7178,-116.2081
3.7183,-118.0393
3.7188,-115.5978
3.7193,-119.8705
3.7198,-117.7341
3.7203,-112.2406
3.7208,-127.5003
3.7213,-164.7341
3.7218,-185.7925
3.7223,-167.4808
3.7228,-131.4679
3.7233,-102.4744
3.7238,-68.2926
3.7243,-7.5589
3.7248,60.4994
3.7253,99.2591
3.7258,105.0578
3.7263,105.6682
3.7268,112.3825
3.7273,109.6357
3.7278,89.1877
3.7283,67.5189
3.7288,60.1942
3.7293,62.0254
3.7298,62.0254
3.7303,59.8890
3.7308,62.9410
3.7313,70.2656
3.7318,72.0968
3.7323,59.5838
3.7328,37.3046
3.7333,19.9086
3.7338,18.6878
3.7343,29.9800
3.7348,42.4929
3.7353,52.8696
3.7358,62.6358
3.7363,66.6033
3.7368,56.5319
3.7373,40.9670
3.7378,36.9994
3.7383,44.3241
3.7388,40.9670
3.7393,15.6358
3.7398,-19.7667
3.7403,-50.8965
3.7408,-74.7017
3.7413,-88.7407
3.7418,-88.4355
3.7423,-83.5523
3.7428,-94.8445
3.7433,-122.9224
3.7438,-138.7925
3.7443,-125.6692
3.7448,-100.3380
3.7453,-79.2796
3.7458,-49.0654
3.7463,4.9540
3.7468,60.8046
3.7473,79.4215
3.7478,59.2786
3.7483,33.0319
3.7488,21.4345
3.7493,14.4151
3.7498,1.2917
3.7503,-7.5589
3.7508,0.6813
3.7513,22.3501
3.7518,40.0514
3.7523,44.3241
3.7528,37.6098
3.7533,30.2852
3.7538,33.0319
3.7543,47.6812
3.7548,62.6358
3.7553,65.0773
3.7558,57.1423
3.7563,54.3955
3.7568,67.8241
3.7573,90.4085
3.7578,106.5838
3.7583,107.8045
3.7588,99.2591
3.7593,91.9344
3.7598,85.5254
3.7603,64.7721
3.7608,18.9930
3.7613,-37.4680
3.7618,-77.1433
3.7623,-87.5199
3.7628,-84.4679
3.7633,-87.5199
3.7638,-93.6238
3.7643,-89.0458
3.7648,-71.3446
3.7653,-55.4745
3.7658,-50.5913
3.7663,-49.6758
3.7668,-42.6563
3.7673,-31.0589
3.7678,-27.3966
3.7683,-35.9420
3.7688,-47.5394
3.7693,-49.6758
3.7698,-39.6044
3.7703,-24.6498
3.7708,-12.1369
3.7713,-8.1693
3.7718,-15.4940
3.7723,-31.6693
3.7728,-43.8771
3.7733,-37.1628
3.7738,-14.2732
3.7743,4.3436
3.7748,5.5644
3.7753,-1.4550
3.7758,-0.8447
3.7763,8.3112
3.7768,14.1099
3.7773,12.2787
3.7778,9.5319
3.7783,9.8371
3.7788,11.6683
3.7793,16.8566
3.7798,28.4540
3.7803,40.6618
3.7808,46.1553
3.7813,49.5124
3.7818,60.4994
3.7823,74.8436
3.7828,81.5578
3.7833,83.0838
3.7838,90.4085
3.7843,98.3435
3.7848,88.5773
3.7853,60.4994
3.7858,31.8111
3.7863,9.2268
3.7868,-18.5459
3.7873,-51.5069
3.7878,-72.5653
3.7883,-83.8575
3.7888,-110.4095
3.7893,-155.5782
3.7898,-181.8249
3.7903,-162.9029
3.7908,-125.3640
3.7913,-106.4419
3.7918,-103.0848
3.7923,-89.0458
3.7928,-63.7147
3.7933,-42.6563
3.7938,-18.5459
3.7943,25.0969
3.7948,71.7916
3.7953,84.3046
3.7958,62.0254
3.7963,45.8501
3.7968,58.6682
3.7973,78.8111
3.7978,81.8630
3.7983,75.7591
3.7988,78.8111
3.7993,86.7461
3.7998,84.9150
3.8003,72.4020
3.8008,59.2786
3.8013,49.8176
3.8018,45.2397
3.8023,49.5124
3.8028,63.5514
3.8033,78.5059
3.8038,87.3565
3.8043,94.0708
3.8048,103.5318
3.8053,111.7721
3.8058,111.7721
3.8063,99.8695
3.8068,75.7591
3.8073,34.8631
3.8078,-18.8511
3.8083,-69.2082
3.8088,-97.5913
3.8093,-101.8640
3.8098,-94.2341
3.8103,-86.2991
3.8108,-81.4160
3.8113,-80.1952
3.8118,-84.1627
3.8123,-93.6238
3.8128,-105.2211
3.8133,-111.0198
3.8138,-103.6952
3.8143,-82.0264
3.8148,-55.4745
3.8153,-36.2472
3.8158,-28.6174
3.8163,-26.4810
3.8168,-23.1239
3.8173,-19.1563
3.8178,-17.6304
3.8183,-16.7148
3.8188,-13.6628
3.8193,-10.3057
3.8198,-9.0849
3.8203,-7.2537
3.8208,-1.1499
3.8213,5.8696
3.8218,8.9216
3.8223,8.9216
3.8228,10.4475
3.8233,13.8047
3.8238,16.8566
3.8243,20.2138
3.8248,27.5384
3.8253,36.3891
3.8258,40.9670
3.8263,41.5774
3.8268,44.6293
3.8273,49.8176
3.8278,51.0384
3.8283,48.2916
3.8288,48.9020
3.8293,51.9540
3.8298,42.7981
3.8303,16.5514
3.8308,-11.2213
3.8313,-20.9875
3.8318,-12.7472
3.8323,-2.6758
3.8328,-0.2343
3.8333,0.0709
3.8338,3.4281
3.8343,8.0060
3.8348,8.6164
3.8353,4.9540
3.8358,-0.8447
3.8363,-6.0330
3.8368,-7.5589
3.8373,-4.8122
3.8378,0.3761
3.8383,7.0904
3.8388,20.2138
3.8393,40.3566
3.8398,58.0579
3.8403,62.3306
3.8408,53.7851
3.8413,41.5774
3.8418,28.7592
3.8423,10.1423
3.8428,-13.6628
3.8433,-34.7212
3.8438,-45.4030
3.8443,-44.7927
3.8448,-37.7732
3.8453,-28.9225
3.8458,-22.8187
3.8463,-20.9875
3.8468,-17.0200
3.8473,-8.1693
3.8478,-1.4550
3.8483,-9.3901
3.8488,-28.6174
3.8493,-40.5199
3.8498,-33.1953
3.8503,-14.8836
3.8508,-1.7602
3.8513,3.4281
3.8518,9.8371
3.8523,19.2982
3.8528,24.1813
3.8533,16.5514
3.8538,-0.8447
3.8543,-19.1563
3.8548,-30.1433
3.8553,-31.6693
3.8558,-24.3446
3.8563,-9.0849
3.8568,11.9735
3.8573,31.2008
3.8578,37.3046
3.8583,29.0644
3.8588,20.2138
3.8593,22.0449
3.8598,23.8761
3.8603,4.9540
3.8608,-33.1953
3.8613,-62.7991
3.8618,-60.3576
3.8623,-35.3316
3.8628,-11.2213
3.8633,3.7333
3.8638,16.5514
3.8643,27.8436
3.8648,26.9280
3.8653,13.8047
3.8658,5.2592
3.8663,14.4151
3.8668,36.9994
3.8673,62.6358
3.8678,87.9669
3.8683,111.4669
3.8688,126.1162
3.8693,124.8954
3.8698,114.2136
3.8703,104.7526
3.8708,96.2072
3.8713,76.3695
3.8718,37.9150
3.8723,-12.4420
3.8728,-64.3251
3.8733,-110.4095
3.8738,-142.7601
3.8743,-153.7471
3.8748,-144.5912
3.8753,-127.5003
3.8758,-115.2926
3.8763,-109.1887
3.8768,-105.5263
3.8773,-103.0848
3.8778,-101.5588
3.8783,-96.3705
3.8788,-83.8575
3.8793,-68.2926
3.8798,-60.6628
3.8803,-66.7667
3.8808,-81.1108
3.8813,-93.9290
3.8818,-98.2017
3.8823,-92.4030
3.8828,-80.5004
3.8833,-67.3770
3.8838,-55.7797
3.8843,-47.5394
3.8848,-42.6563
3.8853,-39.9095
3.8858,-35.3316
3.8863,-27.7018
3.8868,-19.7667
3.8873,-16.4096
3.8878,-17.9355
3.8883,-18.2407
3.8888,-11.5265
3.8893,3.7333
3.8898,25.0969
3.8903,47.6812
3.8908,63.5514
3.8913,67.5189
3.8918,62.0254
3.8923,56.2267
3.8928,54.0903
3.8933,53.7851
3.8938,52.5644
3.8943,52.8696
3.8948,57.4475
3.8953,62.6358
3.8958,64.4669
3.8963,63.8566
3.8968,64.1617
3.8973,65.3825
3.8978,64.4669
3.8983,59.5838
3.8988,51.9540
3.8993,43.1033
3.8998,34.5579
3.9003,29.9800
3.9008,29.3696
3.9013,26.6228
3.9018,18.6878
3.9023,10.4475
3.9028,11.0579
3.9033,20.2138
3.9038,26.9280
3.9043,24.1813
3.9048,15.9410
3.9053,11.3631
3.9058,11.3631
3.9063,11.9735
3.9068,11.6683
3.9073,13.1943
3.9078,19.6034
3.9083,31.2008
3.9088,46.1553
3.9093,59.8890
3.9098,67.8241
3.9103,71.1812
3.9108,76.0643
3.9113,84.9150
3.9118,89.1877
