"type","name","time_units","begin_time","frequency","count","units"
"signal","","s",0.0000,2000.3556,75600,"uV"

"time","value"
0.0000,-207.7665
0.0005,-177.2470
0.0010,-111.9354
0.0015,-44.1823
0.0020,-5.4226
0.0025,6.1748
0.0030,13.4995
0.0035,27.2332
0.0040,39.1358
0.0045,40.6618
0.0050,31.2008
0.0055,14.7203
0.0060,-3.2862
0.0065,-18.5459
0.0070,-31.3641
0.0075,-44.7927
0.0080,-54.2537
0.0085,-49.9810
0.0090,-29.8381
0.0095,-6.9485
0.0100,9.8371
0.0105,28.7592
0.0110,57.7527
0.0115,86.7461
0.0120,94.9864
0.0125,76.0643
0.0130,45.5449
0.0135,23.2657
0.0140,14.4151
0.0145,9.5319
0.0150,-1.4550
0.0155,-13.9680
0.0160,-13.9680
0.0165,0.3761
0.0170,6.7852
0.0175,-11.2213
0.0180,-44.1823
0.0185,-61.5783
0.0190,-51.5069
0.0195,-32.2797
0.0200,-24.0394
0.0205,-27.0914
0.0210,-26.7862
0.0215,-12.4420
0.0220,11.9735
0.0225,37.9150
0.0230,56.5319
0.0235,66.9085
0.0240,74.2332
0.0245,78.2007
0.0250,74.5384
0.0255,64.4669
0.0260,57.1423
0.0265,56.8371
0.0270,52.5644
0.0275,34.5579
0.0280,6.7852
0.0285,-20.3771
0.0290,-43.5719
0.0295,-60.9680
0.0300,-61.2732
0.0305,-40.5199
0.0310,-16.4096
0.0315,-11.8317
0.0320,-23.7342
0.0325,-26.7862
0.0330,-9.6953
0.0335,11.6683
0.0340,19.9086
0.0345,18.6878
0.0350,21.4345
0.0355,29.3696
0.0360,33.6423
0.0365,28.7592
0.0370,18.3826
0.0375,9.5319
0.0380,3.7333
0.0385,-0.2343
0.0390,-5.1174
0.0395,-8.7797
0.0400,-9.3901
0.0405,-8.4745
0.0410,-9.3901
0.0415,-12.4420
0.0420,-11.5265
0.0425,-4.8122
0.0430,0.3761
0.0435,-0.8447
0.0440,-6.0330
0.0445,-9.0849
0.0450,-10.9161
0.0455,-16.4096
0.0460,-24.3446
0.0465,-28.3122
0.0470,-26.7862
0.0475,-25.2602
0.0480,-27.3966
0.0485,-29.8381
0.0490,-29.2277
0.0495,-27.7018
0.0500,-28.3122
0.0505,-29.5329
0.0510,-27.7018
0.0515,-24.3446
0.0520,-21.9031
0.0525,-21.2927
0.0530,-20.6823
0.0535,-19.7667
0.0540,-18.8511
0.0545,-18.2407
0.0550,-17.3252
0.0555,-16.1044
0.0560,-14.5784
0.0565,-13.3576
0.0570,-12.7472
0.0575,-13.0524
0.0580,-13.3576
0.0585,-10.3057
0.0590,-3.5914
0.0595,0.9865
0.0600,0.3761
0.0605,-2.6758
0.0610,-1.1499
0.0615,4.6488
0.0620,9.2268
0.0625,14.1099
0.0630,28.7592
0.0635,52.2592
0.0640,67.2137
0.0645,62.0254
0.0650,47.6812
0.0655,42.1878
0.0660,46.1553
0.0665,45.8501
0.0670,40.0514
0.0675,39.1358
0.0680,42.1878
0.0685,36.3891
0.0690,20.8241
0.0695,14.4151
0.0700,25.0969
0.0705,32.1163
0.0710,11.6683
0.0715,-31.3641
0.0720,-73.4809
0.0725,-100.0328
0.0730,-112.8510
0.0735,-109.4939
0.0740,-80.8056
0.0745,-30.7537
0.0750,18.6878
0.0755,44.9345
0.0760,45.2397
0.0765,31.5059
0.0770,16.2462
0.0775,5.8696
0.0780,3.4281
0.0785,10.4475
0.0790,21.4345
0.0795,25.7073
0.0800,17.1618
0.0805,1.9021
0.0810,-10.0005
0.0815,-17.9355
0.0820,-27.3966
0.0825,-37.1628
0.0830,-32.8901
0.0835,-4.2018
0.0840,34.2527
0.0845,56.8371
0.0850,53.7851
0.0855,42.4929
0.0860,44.0189
0.0865,58.6682
0.0870,70.2656
0.0875,67.5189
0.0880,54.0903
0.0885,40.3566
0.0890,33.0319
0.0895,33.3371
0.0900,37.3046
0.0905,38.5254
0.0910,33.6423
0.0915,24.4865
0.0920,16.2462
0.0925,11.9735
0.0930,11.3631
0.0935,14.7203
0.0940,21.7397
0.0945,29.0644
0.0950,33.0319
0.0955,35.1683
0.0960,39.4410
0.0965,45.2397
0.0970,47.6812
0.0975,44.3241
0.0980,38.5254
0.0985,35.1683
0.0990,35.4735
0.0995,37.3046
0.1000,39.7462
0.1005,42.4929
0.1010,46.7657
0.1015,52.2592
0.1020,56.8371
0.1025,56.5319
0.1030,50.7332
0.1035,43.4085
0.1040,39.7462
0.1045,38.8306
0.1050,33.0319
0.1055,20.2138
0.1060,8.6164
0.1065,5.5644
0.1070,7.3956
0.1075,2.2073
0.1080,-13.3576
0.1085,-32.8901
0.1090,-49.3706
0.1095,-64.3251
0.1100,-82.3316
0.1105,-102.1692
0.1110,-116.2081
0.1115,-116.5133
0.1120,-100.9484
0.1125,-72.5653
0.1130,-37.4680
0.1135,-3.2862
0.1140,20.2138
0.1145,25.4021
0.1150,10.4475
0.1155,-15.4940
0.1160,-38.6888
0.1165,-47.5394
0.1170,-38.3836
0.1175,-18.8511
0.1180,-1.1499
0.1185,3.1229
0.1190,-5.1174
0.1195,-18.8511
0.1200,-28.0070
0.1205,-28.3122
0.1210,-20.3771
0.1215,-5.7278
0.1220,11.9735
0.1225,26.9280
0.1230,32.1163
0.1235,28.1488
0.1240,21.4345
0.1245,16.2462
0.1250,11.6683
0.1255,5.8696
0.1260,-1.1499
0.1265,-6.6434
0.1270,-7.8641
0.1275,-5.7278
0.1280,-2.6758
0.1285,-1.4550
0.1290,-2.3706
0.1295,-2.9810
0.1300,-3.5914
0.1305,-4.5070
0.1310,-6.0330
0.1315,-7.2537
0.1320,-7.2537
0.1325,-8.1693
0.1330,-11.2213
0.1335,-15.1888
0.1340,-17.3252
0.1345,-17.0200
0.1350,-15.7992
0.1355,-16.1044
0.1360,-18.5459
0.1365,-21.5979
0.1370,-23.1239
0.1375,-22.2083
0.1380,-20.6823
0.1385,-20.6823
0.1390,-21.2927
0.1395,-20.3771
0.1400,-17.6304
0.1405,-15.7992
0.1410,-16.1044
0.1415,-16.7148
0.1420,-16.1044
0.1425,-13.9680
0.1430,-11.8317
0.1435,-10.3057
0.1440,-9.3901
0.1445,-9.0849
0.1450,-8.1693
0.1455,-6.3382
0.1460,-3.5914
0.1465,-1.7602
0.1470,-2.3706
0.1475,-3.5914
0.1480,-4.5070
0.1485,-5.7278
0.1490,-9.6953
0.1495,-16.1044
0.1500,-22.5135
0.1505,-26.1758
0.1510,-26.1758
0.1515,-22.8187
0.1520,-17.9355
0.1525,-13.0524
0.1530,-9.0849
0.1535,-6.9485
0.1540,-8.7797
0.1545,-12.4420
0.1550,-16.1044
0.1555,-18.5459
0.1560,-21.5979
0.1565,-26.1758
0.1570,-28.3122
0.1575,-25.5654
0.1580,-19.7667
0.1585,-16.1044
0.1590,-16.7148
0.1595,-19.7667
0.1600,-22.5135
0.1605,-22.8187
0.1610,-19.7667
0.1615,-13.0524
0.1620,-5.4226
0.1625,0.9865
0.1630,5.5644
0.1635,7.7008
0.1640,6.1748
0.1645,2.8177
0.1650,3.1229
0.1655,8.6164
0.1660,14.7203
0.1665,15.9410
0.1670,11.9735
0.1675,8.6164
0.1680,7.7008
0.1685,6.1748
0.1690,3.1229
0.1695,0.9865
0.1700,0.0709
0.1705,-1.4550
0.1710,-3.8966
0.1715,-5.1174
0.1720,-2.6758
0.1725,1.9021
0.1730,8.0060
0.1735,14.1099
0.1740,19.2982
0.1745,20.5189
0.1750,17.7722
0.1755,15.0254
0.1760,13.8047
0.1765,12.5839
0.1770,9.5319
0.1775,4.9540
0.1780,0.6813
0.1785,-5.4226
0.1790,-15.7992
0.1795,-27.0914
0.1800,-35.9420
0.1805,-40.8251
0.1810,-42.9615
0.1815,-40.8251
0.1820,-32.2797
0.1825,-19.1563
0.1830,-6.9485
0.1835,0.0709
0.1840,2.8177
0.1845,4.6488
0.1850,6.1748
0.1855,6.1748
0.1860,5.2592
0.1865,4.9540
0.1870,5.2592
0.1875,5.5644
0.1880,4.6488
0.1885,2.5125
0.1890,0.0709
0.1895,-2.6758
0.1900,-2.3706
0.1905,1.5969
0.1910,8.3112
0.1915,12.8891
0.1920,13.4995
0.1925,12.8891
0.1930,15.0254
0.1935,19.6034
0.1940,22.0449
0.1945,19.2982
0.1950,12.5839
0.1955,5.5644
0.1960,0.3761
0.1965,-2.0654
0.1970,-2.0654
0.1975,2.8177
0.1980,15.6358
0.1985,34.2527
0.1990,52.5644
0.1995,63.2462
0.2000,65.3825
0.2005,63.2462
0.2010,60.4994
0.2015,55.9215
0.2020,49.2072
0.2025,43.4085
0.2030,39.1358
0.2035,31.2008
0.2040,16.8566
0.2045,-0.5395
0.2050,-15.1888
0.2055,-25.8706
0.2060,-35.0264
0.2065,-45.4030
0.2070,-60.9680
0.2075,-85.3835
0.2080,-110.4095
0.2085,-118.3445
0.2090,-100.3380
0.2095,-73.4809
0.2100,-62.7991
0.2105,-68.5978
0.2110,-70.7342
0.2115,-57.3056
0.2120,-39.6044
0.2125,-30.1433
0.2130,-26.1758
0.2135,-16.4096
0.2140,-1.7602
0.2145,7.3956
0.2150,8.6164
0.2155,5.8696
0.2160,3.1229
0.2165,1.2917
0.2170,1.2917
0.2175,5.8696
0.2180,12.8891
0.2185,18.9930
0.2190,22.3501
0.2195,24.7917
0.2200,26.9280
0.2205,27.8436
0.2210,27.8436
0.2215,28.7592
0.2220,30.5904
0.2225,32.1163
0.2230,33.0319
0.2235,34.2527
0.2240,36.6943
0.2245,37.9150
0.2250,36.3891
0.2255,33.0319
0.2260,30.8956
0.2265,31.2008
0.2270,31.2008
0.2275,29.9800
0.2280,27.8436
0.2285,28.1488
0.2290,30.2852
0.2295,32.1163
0.2300,31.5059
0.2305,29.9800
0.2310,29.6748
0.2315,30.8956
0.2320,31.5059
0.2325,29.9800
0.2330,27.8436
0.2335,26.3176
0.2340,25.7073
0.2345,24.1813
0.2350,21.4345
0.2355,19.2982
0.2360,19.2982
0.2365,19.9086
0.2370,19.6034
0.2375,18.3826
0.2380,18.3826
0.2385,19.6034
0.2390,20.2138
0.2395,18.3826
0.2400,14.7203
0.2405,10.7527
0.2410,7.7008
0.2415,5.2592
0.2420,1.9021
0.2425,-2.9810
0.2430,-8.7797
0.2435,-12.4420
0.2440,-12.7472
0.2445,-11.2213
0.2450,-9.6953
0.2455,-8.4745
0.2460,-6.6434
0.2465,-5.7278
0.2470,-7.5589
0.2475,-11.8317
0.2480,-15.7992
0.2485,-17.9355
0.2490,-17.3252
0.2495,-14.2732
0.2500,-8.1693
0.2505,0.0709
0.2510,6.4800
0.2515,8.6164
0.2520,6.7852
0.2525,5.8696
0.2530,8.6164
0.2535,13.8047
0.2540,18.3826
0.2545,20.2138
0.2550,21.1293
0.2555,23.5709
0.2560,26.6228
0.2565,27.2332
0.2570,24.7917
0.2575,22.0449
0.2580,21.4345
0.2585,21.7397
0.2590,20.2138
0.2595,17.4670
0.2600,15.9410
0.2605,15.3306
0.2610,13.4995
0.2615,8.9216
0.2620,4.0384
0.2625,0.3761
0.2630,-2.3706
0.2635,-5.4226
0.2640,-8.1693
0.2645,-10.0005
0.2650,-10.9161
0.2655,-11.8317
0.2660,-12.4420
0.2665,-12.4420
0.2670,-13.6628
0.2675,-16.1044
0.2680,-17.9355
0.2685,-18.2407
0.2690,-18.8511
0.2695,-19.7667
0.2700,-19.7667
0.2705,-16.4096
0.2710,-12.4420
0.2715,-10.6109
0.2720,-11.2213
0.2725,-10.9161
0.2730,-9.0849
0.2735,-8.7797
0.2740,-10.6109
0.2745,-12.1369
0.2750,-11.2213
0.2755,-9.0849
0.2760,-6.9485
0.2765,-5.7278
0.2770,-5.4226
0.2775,-5.7278
0.2780,-5.4226
0.2785,-3.8966
0.2790,-2.0654
0.2795,-1.4550
0.2800,-1.4550
0.2805,0.3761
0.2810,3.4281
0.2814,5.8696
0.2819,6.7852
0.2824,8.0060
0.2829,9.5319
0.2834,9.5319
0.2839,7.3956
0.2844,4.9540
0.2849,3.1229
0.2854,-0.5395
0.2859,-7.5589
0.2864,-13.3576
0.2869,-14.2732
0.2874,-12.4420
0.2879,-11.5265
0.2884,-13.0524
0.2889,-15.7992
0.2894,-18.5459
0.2899,-20.6823
0.2904,-21.9031
0.2909,-21.5979
0.2914,-21.2927
0.2919,-21.9031
0.2924,-23.7342
0.2929,-24.9550
0.2934,-24.6498
0.2939,-21.9031
0.2944,-16.4096
0.2949,-8.4745
0.2954,-1.7602
0.2959,0.9865
0.2964,0.9865
0.2969,1.5969
0.2974,2.5125
0.2979,2.5125
0.2984,1.5969
0.2989,2.5125
0.2994,6.4800
0.2999,9.2268
0.3004,7.7008
0.3009,4.0384
0.3014,2.2073
0.3019,2.2073
0.3024,1.5969
0.3029,0.3761
0.3034,0.3761
0.3039,1.2917
0.3044,0.3761
0.3049,-0.5395
0.3054,0.6813
0.3059,4.6488
0.3064,8.3112
0.3069,9.5319
0.3074,10.4475
0.3079,11.6683
0.3084,11.9735
0.3089,10.1423
0.3094,9.5319
0.3099,10.4475
0.3104,9.5319
0.3109,6.1748
0.3114,3.1229
0.3119,3.1229
0.3124,3.7333
0.3129,2.5125
0.3134,1.2917
0.3139,2.5125
0.3144,4.6488
0.3149,4.6488
0.3154,2.5125
0.3159,-0.2343
0.3164,-7.5589
0.3169,-19.7667
0.3174,-32.2797
0.3179,-38.3836
0.3184,-38.0784
0.3189,-37.1628
0.3194,-37.7732
0.3199,-36.5524
0.3204,-31.0589
0.3209,-23.1239
0.3214,-16.1044
0.3219,-11.5265
0.3224,-9.6953
0.3229,-10.0005
0.3234,-9.6953
0.3239,-6.9485
0.3244,-2.9810
0.3249,0.0709
0.3254,1.2917
0.3259,3.1229
0.3264,4.9540
0.3269,6.1748
0.3274,6.4800
0.3279,8.0060
0.3284,9.8371
0.3289,10.1423
0.3294,9.5319
0.3299,10.7527
0.3304,12.8891
0.3309,13.1943
0.3314,11.9735
0.3319,12.2787
0.3324,14.1099
0.3329,13.4995
0.3334,9.5319
0.3339,6.1748
0.3344,5.8696
0.3349,6.4800
0.3354,4.9540
0.3359,1.9021
0.3364,0.3761
0.3369,0.9865
0.3374,2.5125
0.3379,4.0384
0.3384,4.3436
0.3389,3.1229
0.3394,0.9865
0.3399,0.3761
0.3404,0.6813
0.3409,-0.5395
0.3414,-4.2018
0.3419,-6.3382
0.3424,-7.2537
0.3429,-10.9161
0.3434,-18.5459
0.3439,-24.3446
0.3444,-23.7342
0.3449,-20.0719
0.3454,-19.4615
0.3459,-22.8187
0.3464,-25.5654
0.3469,-25.8706
0.3474,-25.2602
0.3479,-24.9550
0.3484,-24.0394
0.3489,-24.3446
0.3494,-26.7862
0.3499,-29.8381
0.3504,-30.7537
0.3509,-29.2277
0.3514,-25.8706
0.3519,-19.4615
0.3524,-7.5589
0.3529,5.5644
0.3534,13.4995
0.3539,12.5839
0.3544,7.3956
0.3549,3.4281
0.3554,1.9021
0.3559,1.5969
0.3564,2.8177
0.3569,6.4800
0.3574,10.4475
0.3579,13.1943
0.3584,15.6358
0.3589,18.0774
0.3594,19.9086
0.3599,18.3826
0.3604,15.3306
0.3609,13.8047
0.3614,15.0254
0.3619,18.6878
0.3624,22.3501
0.3629,25.7073
0.3634,27.8436
0.3639,29.0644
0.3644,29.3696
0.3649,29.6748
0.3654,30.2852
0.3659,31.5059
0.3664,33.6423
0.3669,35.7787
0.3674,36.3891
0.3679,34.8631
0.3684,33.0319
0.3689,31.8111
0.3694,30.8956
0.3699,30.2852
0.3704,29.9800
0.3709,30.2852
0.3714,29.9800
0.3719,28.1488
0.3724,25.0969
0.3729,21.4345
0.3734,16.8566
0.3739,11.3631
0.3744,6.1748
0.3749,1.9021
0.3754,-1.1499
0.3759,-2.0654
0.3764,1.2917
0.3769,8.9216
0.3774,15.3306
0.3779,16.2462
0.3784,13.4995
0.3789,12.5839
0.3794,13.8047
0.3799,12.5839
0.3804,6.4800
0.3809,-1.7602
0.3814,-8.7797
0.3819,-14.2732
0.3824,-19.7667
0.3829,-23.7342
0.3834,-23.4290
0.3839,-17.9355
0.3844,-10.6109
0.3849,-5.1174
0.3854,-2.6758
0.3859,-1.4550
0.3864,0.3761
0.3869,3.4281
0.3874,5.2592
0.3879,5.8696
0.3884,6.7852
0.3889,9.5319
0.3894,11.9735
0.3899,12.2787
0.3904,11.6683
0.3909,12.5839
0.3914,15.0254
0.3919,16.5514
0.3924,15.3306
0.3929,11.6683
0.3934,7.7008
0.3939,4.9540
0.3944,4.3436
0.3949,4.3436
0.3954,3.4281
0.3959,1.2917
0.3964,-0.8447
0.3969,-1.4550
0.3974,0.0709
0.3979,0.9865
0.3984,2.2073
0.3989,3.7333
0.3994,6.4800
0.3999,7.7008
0.4004,5.5644
0.4009,0.6813
0.4014,-3.5914
0.4019,-5.4226
0.4024,-6.9485
0.4029,-9.6953
0.4034,-13.6628
0.4039,-16.1044
0.4044,-17.3252
0.4049,-20.3771
0.4054,-24.9550
0.4059,-28.0070
0.4064,-26.4810
0.4069,-23.7342
0.4074,-24.0394
0.4079,-26.7862
0.4084,-28.9225
0.4089,-28.3122
0.4094,-26.4810
0.4099,-23.7342
0.4104,-19.4615
0.4109,-14.8836
0.4114,-12.4420
0.4119,-11.2213
0.4124,-7.8641
0.4129,-2.6758
0.4134,0.6813
0.4139,0.3761
0.4144,-1.1499
0.4149,-2.0654
0.4154,-1.1499
0.4159,0.9865
0.4164,4.0384
0.4169,6.4800
0.4174,5.8696
0.4179,3.1229
0.4184,1.9021
0.4189,2.5125
0.4194,2.2073
0.4199,0.3761
0.4204,-1.7602
0.4209,-2.0654
0.4214,-2.6758
0.4219,-4.5070
0.4224,-6.6434
0.4229,-7.5589
0.4234,-7.2537
0.4239,-7.8641
0.4244,-7.5589
0.4249,-3.8966
0.4254,1.9021
0.4259,5.8696
0.4264,4.0384
0.4269,-0.5395
0.4274,-4.8122
0.4279,-6.6434
0.4284,-6.9485
0.4289,-7.5589
0.4294,-8.7797
0.4299,-8.7797
0.4304,-6.0330
0.4309,-1.1499
0.4314,2.5125
0.4319,3.7333
0.4324,3.7333
0.4329,3.1229
0.4334,1.5969
0.4339,-0.8447
0.4344,-3.8966
0.4349,-5.7278
0.4354,-7.2537
0.4359,-10.3057
0.4364,-13.9680
0.4369,-17.3252
0.4374,-20.0719
0.4379,-21.5979
0.4384,-19.7667
0.4389,-14.2732
0.4394,-9.3901
0.4399,-9.0849
0.4404,-12.7472
0.4409,-16.4096
0.4414,-16.7148
0.4419,-14.8836
0.4424,-13.3576
0.4429,-11.8317
0.4434,-9.6953
0.4439,-6.6434
0.4444,-4.2018
0.4449,-2.9810
0.4454,-2.0654
0.4459,-1.1499
0.4464,0.3761
0.4469,2.2073
0.4474,3.4281
0.4479,4.9540
0.4484,8.3112
0.4489,11.9735
0.4494,13.1943
0.4499,11.6683
0.4504,8.9216
0.4509,7.0904
0.4514,6.4800
0.4519,7.0904
0.4524,7.7008
0.4529,7.7008
0.4534,7.0904
0.4539,6.1748
0.4544,5.5644
0.4549,4.6488
0.4554,4.0384
0.4559,5.2592
0.4564,8.0060
0.4569,10.1423
0.4574,10.1423
0.4579,10.1423
0.4584,11.9735
0.4589,12.8891
0.4594,11.6683
0.4599,9.8371
0.4604,10.4475
0.4609,11.6683
0.4614,9.8371
0.4619,6.4800
0.4624,5.8696
0.4629,7.3956
0.4634,7.7008
0.4639,4.6488
0.4644,2.2073
0.4649,1.5969
0.4654,0.6813
0.4659,-1.4550
0.4664,-1.1499
0.4669,2.8177
0.4674,6.4800
0.4679,4.6488
0.4684,0.3761
0.4689,-1.4550
0.4694,0.3761
0.4699,3.1229
0.4704,4.6488
0.4709,6.4800
0.4714,8.6164
0.4719,7.0904
0.4724,0.3761
0.4729,-8.7797
0.4734,-16.4096
0.4739,-20.6823
0.4744,-22.8187
0.4749,-24.0394
0.4754,-22.2083
0.4759,-16.7148
0.4764,-9.3901
0.4769,-2.9810
0.4774,0.9865
0.4779,2.8177
0.4784,3.7333
0.4789,3.7333
0.4794,3.7333
0.4799,4.0384
0.4804,5.8696
0.4809,8.0060
0.4814,9.8371
0.4819,10.1423
0.4824,8.9216
0.4829,6.4800
0.4834,4.0384
0.4839,2.2073
0.4844,0.6813
0.4849,0.3761
0.4854,1.2917
0.4859,3.7333
0.4864,4.9540
0.4869,3.4281
0.4874,1.2917
0.4879,1.9021
0.4884,6.1748
0.4889,10.1423
0.4894,11.3631
0.4899,9.8371
0.4904,7.3956
0.4909,4.6488
0.4914,2.2073
0.4919,3.1229
0.4924,8.3112
0.4929,15.0254
0.4934,19.9086
0.4939,23.2657
0.4944,25.7073
0.4949,26.0124
0.4954,22.0449
0.4959,13.8047
0.4964,4.0384
0.4969,-5.4226
0.4974,-15.4940
0.4979,-24.0394
0.4984,-28.3122
0.4989,-28.3122
0.4994,-27.0914
0.4999,-27.3966
0.5004,-28.9225
0.5009,-28.9225
0.5014,-24.3446
0.5019,-15.7992
0.5024,-7.5589
0.5029,-2.9810
0.5034,-1.1499
0.5039,0.9865
0.5044,5.2592
0.5049,9.2268
0.5054,11.3631
0.5059,13.8047
0.5064,15.9410
0.5069,14.7203
0.5074,8.6164
0.5079,0.6813
0.5084,-5.1174
0.5089,-9.0849
0.5094,-12.1369
0.5099,-13.3576
0.5104,-11.2213
0.5109,-6.0330
0.5114,-1.1499
0.5119,1.2917
0.5124,2.8177
0.5129,3.4281
0.5134,4.0384
0.5139,6.1748
0.5144,8.9216
0.5149,8.9216
0.5154,5.2592
0.5159,0.6813
0.5164,-0.5395
0.5169,0.3761
0.5174,1.5969
0.5179,1.5969
0.5184,1.5969
0.5189,2.2073
0.5194,4.0384
0.5199,6.7852
0.5204,8.9216
0.5209,7.7008
0.5214,2.8177
0.5219,-1.7602
0.5224,-2.3706
0.5229,-0.2343
0.5234,2.5125
0.5239,5.5644
0.5244,8.6164
0.5249,10.1423
0.5254,8.6164
0.5259,6.7852
0.5264,7.7008
0.5269,9.5319
0.5274,9.2268
0.5279,8.3112
0.5284,10.7527
0.5289,14.7203
0.5294,16.5514
0.5299,14.4151
0.5304,12.5839
0.5309,12.5839
0.5314,11.3631
0.5319,7.3956
0.5324,3.1229
0.5329,1.9021
0.5334,2.2073
0.5339,1.2917
0.5344,0.3761
0.5349,1.2917
0.5354,4.6488
0.5359,8.3112
0.5364,10.7527
0.5369,11.0579
0.5374,8.0060
0.5379,3.1229
0.5384,-0.8447
0.5389,-2.9810
0.5394,-3.2862
0.5399,-3.2862
0.5404,-3.5914
0.5409,-3.8966
0.5414,-4.8122
0.5419,-6.3382
0.5424,-8.7797
0.5429,-13.6628
0.5434,-20.9875
0.5439,-26.4810
0.5444,-25.5654
0.5449,-18.5459
0.5454,-11.5265
0.5459,-7.8641
0.5464,-5.1174
0.5469,0.6813
0.5474,9.5319
0.5479,16.5514
0.5484,17.7722
0.5489,14.1099
0.5494,9.5319
0.5499,7.0904
0.5504,8.3112
0.5509,11.0579
0.5514,12.2787
0.5519,10.7527
0.5524,8.3112
0.5529,7.0904
0.5534,5.8696
0.5539,3.7333
0.5544,1.5969
0.5549,-0.2343
0.5554,-4.2018
0.5559,-10.9161
0.5564,-19.4615
0.5569,-26.1758
0.5574,-28.9225
0.5579,-28.0070
0.5584,-25.2602
0.5589,-21.9031
0.5594,-20.0719
0.5599,-19.1563
0.5604,-17.9355
0.5609,-14.2732
0.5614,-8.4745
0.5619,-3.2862
0.5624,0.6813
0.5629,5.5644
0.5634,12.2787
0.5639,18.3826
0.5644,22.0449
0.5649,22.6553
0.5654,21.7397
0.5659,21.4345
0.5664,22.9605
0.5669,24.7917
0.5674,24.4865
0.5679,19.9086
0.5684,13.8047
0.5689,9.5319
0.5694,6.4800
0.5699,1.9021
0.5704,-4.2018
0.5709,-8.1693
0.5714,-8.1693
0.5719,-7.5589
0.5724,-9.6953
0.5729,-13.0524
0.5734,-11.8317
0.5739,-5.4226
0.5744,0.0709
0.5749,-1.1499
0.5754,-5.7278
0.5759,-6.9485
0.5764,-2.3706
0.5769,3.4281
0.5774,5.8696
0.5779,4.3436
0.5784,3.1229
0.5789,3.4281
0.5794,1.9021
0.5799,-2.9810
0.5804,-7.2537
0.5809,-5.4226
0.5814,1.9021
0.5819,8.6164
0.5824,10.1423
0.5829,9.2268
0.5834,8.9216
0.5839,8.3112
0.5844,5.8696
0.5849,3.4281
0.5854,3.4281
0.5859,4.6488
0.5864,2.2073
0.5869,-2.6758
0.5874,-6.3382
0.5879,-5.4226
0.5884,-2.3706
0.5889,0.6813
0.5894,4.0384
0.5899,6.7852
0.5904,6.7852
0.5909,2.8177
0.5914,-2.0654
0.5919,-3.8966
0.5924,-1.4550
0.5929,1.9021
0.5934,3.7333
0.5939,3.7333
0.5944,4.0384
0.5949,5.2592
0.5954,5.8696
0.5959,5.2592
0.5964,4.0384
0.5969,4.0384
0.5974,4.3436
0.5979,3.4281
0.5984,0.9865
0.5989,-1.4550
0.5994,-2.9810
0.5999,-2.9810
0.6004,-1.7602
0.6009,-0.8447
0.6014,-0.2343
0.6019,-0.5395
0.6024,-1.7602
0.6029,-1.7602
0.6034,-1.1499
0.6039,-1.4550
0.6044,-3.2862
0.6049,-5.1174
0.6054,-4.8122
0.6059,-3.5914
0.6064,-3.5914
0.6069,-4.5070
0.6074,-3.5914
0.6079,-0.8447
0.6084,0.9865
0.6089,0.6813
0.6094,-1.7602
0.6099,-4.2018
0.6104,-3.8966
0.6109,-1.4550
0.6114,0.3761
0.6119,-1.1499
0.6124,-5.4226
0.6129,-9.3901
0.6134,-11.5265
0.6139,-12.4420
0.6144,-12.4420
0.6149,-10.9161
0.6154,-7.8641
0.6159,-5.4226
0.6164,-5.7278
0.6169,-6.6434
0.6174,-4.5070
0.6179,0.6813
0.6184,8.6164
0.6189,16.2462
0.6194,22.9605
0.6199,27.8436
0.6204,30.5904
0.6209,31.2008
0.6214,30.2852
0.6219,26.9280
0.6224,20.5189
0.6229,13.8047
0.6234,10.1423
0.6239,8.6164
0.6244,5.2592
0.6249,-1.4550
0.6254,-9.0849
0.6259,-12.1369
0.6264,-10.9161
0.6269,-9.3901
0.6274,-11.8317
0.6279,-17.3252
0.6284,-20.3771
0.6289,-19.4615
0.6294,-17.6304
0.6299,-20.9875
0.6304,-29.5329
0.6309,-36.8576
0.6314,-37.7732
0.6319,-33.8057
0.6324,-30.7537
0.6329,-30.4485
0.6334,-31.3641
0.6339,-31.3641
0.6344,-30.7537
0.6349,-27.3966
0.6354,-19.4615
0.6359,-10.6109
0.6364,-6.0330
0.6369,-9.0849
0.6374,-16.1044
0.6379,-22.5135
0.6384,-26.4810
0.6389,-27.3966
0.6394,-24.6498
0.6399,-17.6304
0.6404,-7.8641
0.6409,1.5969
0.6414,8.3112
0.6419,10.7527
0.6424,9.2268
0.6429,7.3956
0.6434,6.1748
0.6439,4.3436
0.6444,-0.2343
0.6449,-5.7278
0.6454,-6.3382
0.6459,0.0709
0.6464,7.7008
0.6469,11.6683
0.6474,11.6683
0.6479,11.3631
0.6484,13.8047
0.6489,17.7722
0.6494,20.8241
0.6499,22.3501
0.6504,23.5709
0.6509,26.3176
0.6514,28.7592
0.6519,28.1488
0.6524,24.1813
0.6529,20.8241
0.6534,19.9086
0.6539,21.4345
0.6544,22.3501
0.6549,20.8241
0.6554,16.2462
0.6559,10.7527
0.6564,7.3956
0.6569,8.9216
0.6574,11.9735
0.6579,11.6683
0.6584,6.7852
0.6589,0.6813
0.6594,-2.6758
0.6599,-3.2862
0.6604,-2.6758
0.6609,-1.4550
0.6614,-0.5395
0.6619,-1.7602
0.6624,-3.5914
