"type","name","time_units","begin_time","frequency","count","units"
"signal","","s",0.0000,2000.3556,146960,"uV"

"time","value"
0.0000,-192.8989
0.0005,-145.8989
0.0010,-119.9574
0.0015,-113.2431
0.0020,-104.3925
0.0025,-86.9964
0.0030,-71.1263
0.0035,-59.5289
0.0040,-44.8796
0.0045,-25.9575
0.0050,-12.2238
0.0055,-6.4251
0.0060,-2.4576
0.0065,4.8671
0.0070,12.8022
0.0075,17.6853
0.0080,19.8216
0.0085,21.0424
0.0090,18.9060
0.0095,14.6333
0.0100,13.4125
0.0105,17.9905
0.0110,22.5684
0.0115,21.3476
0.0120,14.3281
0.0125,9.7502
0.0130,12.8022
0.0135,23.7891
0.0140,39.0489
0.0145,54.3086
0.0150,63.7696
0.0155,63.4644
0.0160,56.4450
0.0165,50.9515
0.0170,51.2566
0.0175,53.3930
0.0180,53.3930
0.0185,54.0034
0.0190,57.6657
0.0195,57.6657
0.0200,46.6787
0.0205,25.6203
0.0210,-0.0160
0.0215,-27.1783
0.0220,-51.5939
0.0225,-60.4445
0.0230,-44.2692
0.0235,-13.7498
0.0240,7.9190
0.0245,10.0554
0.0250,2.4255
0.0255,-1.5420
0.0260,-2.4576
0.0265,-9.4770
0.0270,-30.2303
0.0275,-63.8016
0.0280,-97.3730
0.0285,-111.4120
0.0290,-95.5419
0.0295,-61.0549
0.0300,-29.6199
0.0305,-10.3926
0.0310,0.8996
0.0315,8.8346
0.0320,8.8346
0.0325,1.2048
0.0330,-2.1524
0.0335,6.3931
0.0340,23.4840
0.0345,37.8281
0.0350,43.6268
0.0355,39.6593
0.0360,28.3671
0.0365,17.0749
0.0370,12.8022
0.0375,11.5814
0.0380,3.9515
0.0385,-8.2563
0.0390,-13.4446
0.0395,-6.1199
0.0400,7.6138
0.0405,22.5684
0.0410,41.7956
0.0415,61.6333
0.0420,72.3151
0.0425,74.1462
0.0430,77.5034
0.0435,82.3865
0.0440,70.1787
0.0445,33.8606
0.0450,-5.8147
0.0455,-28.3991
0.0460,-39.3861
0.0465,-50.0679
0.0470,-50.0679
0.0475,-26.2627
0.0480,1.5100
0.0485,-1.5420
0.0490,-36.9445
0.0495,-66.2432
0.0500,-69.2951
0.0505,-68.9900
0.0510,-90.0484
0.0515,-115.0743
0.0520,-107.4444
0.0525,-65.0224
0.0530,-20.7692
0.0535,2.1203
0.0540,11.5814
0.0545,21.6528
0.0550,28.9775
0.0555,26.5359
0.0560,22.5684
0.0565,31.4190
0.0570,50.3411
0.0575,61.3281
0.0580,58.2761
0.0585,54.0034
0.0590,61.3281
0.0595,75.0618
0.0600,82.3865
0.0605,80.2501
0.0610,72.3151
0.0615,61.6333
0.0620,47.8995
0.0625,33.8606
0.0630,20.1268
0.0635,5.1723
0.0640,-10.6978
0.0645,-23.2108
0.0650,-29.3147
0.0655,-32.3666
0.0660,-35.1134
0.0665,-35.4186
0.0670,-32.0614
0.0675,-31.1458
0.0680,-36.0290
0.0685,-40.3017
0.0690,-33.5874
0.0695,-17.4121
0.0700,-0.9316
0.0705,9.1398
0.0710,11.8866
0.0715,8.2242
0.0720,0.5944
0.0725,-4.8991
0.0730,-4.5939
0.0735,-0.6264
0.0740,3.3411
0.0745,11.8866
0.0750,26.8411
0.0755,40.2696
0.0760,39.9645
0.0765,24.3995
0.0770,6.6983
0.0775,-2.1524
0.0780,-3.3732
0.0785,-6.4251
0.0790,-16.8017
0.0795,-28.7043
0.0800,-30.2303
0.0805,-17.1069
0.0810,0.8996
0.0815,9.1398
0.0820,2.7307
0.0825,-7.0355
0.0830,-8.5615
0.0835,-2.4576
0.0840,1.2048
0.0845,-0.0160
0.0850,-0.0160
0.0855,4.8671
0.0860,11.8866
0.0865,14.9385
0.0870,14.9385
0.0875,13.1073
0.0880,7.9190
0.0885,-1.5420
0.0890,-10.3926
0.0895,-12.8342
0.0900,-12.5290
0.0905,-16.1913
0.0910,-21.3796
0.0915,-22.2952
0.0920,-21.3796
0.0925,-27.7887
0.0930,-40.6069
0.0935,-43.9640
0.0940,-29.9251
0.0945,-11.0030
0.0950,-7.0355
0.0955,-21.3796
0.0960,-41.2173
0.0965,-54.9510
0.0970,-58.6133
0.0975,-54.0354
0.0980,-49.4575
0.0985,-53.1198
0.0990,-59.5289
0.0995,-45.1848
0.1000,0.5944
0.1005,51.2566
0.1010,65.9060
0.1015,41.7956
0.1020,16.1593
0.1025,18.2956
0.1030,36.9125
0.1035,46.0683
0.1040,43.0164
0.1045,40.8800
0.1050,44.5424
0.1055,46.6787
0.1060,44.5424
0.1065,38.7437
0.1070,27.7567
0.1075,12.1918
0.1080,4.2567
0.1085,15.5489
0.1090,39.0489
0.1095,54.9190
0.1100,55.5294
0.1105,50.0359
0.1110,45.7631
0.1115,39.6593
0.1120,28.3671
0.1125,15.2437
0.1130,5.1723
0.1135,-2.4576
0.1140,-10.6978
0.1145,-21.0744
0.1150,-31.7562
0.1155,-35.7238
0.1160,-25.9575
0.1165,-6.7303
0.1170,5.4775
0.1175,1.2048
0.1180,-5.8147
0.1185,2.7307
0.1190,28.9775
0.1195,56.4450
0.1200,76.5878
0.1205,93.9839
0.1210,106.8020
0.1215,100.0878
0.1220,67.4319
0.1225,27.4515
0.1230,5.4775
0.1235,4.2567
0.1240,5.1723
0.1245,-6.1199
0.1250,-24.4316
0.1255,-33.2822
0.1260,-25.6523
0.1265,-9.1718
0.1270,2.1203
0.1275,3.0359
0.1280,-1.2368
0.1285,-7.3407
0.1290,-16.8017
0.1295,-30.5355
0.1300,-42.4380
0.1305,-45.1848
0.1310,-40.3017
0.1315,-34.8082
0.1320,-29.6199
0.1325,-21.0744
0.1330,-11.0030
0.1335,-6.7303
0.1340,-11.3082
0.1345,-21.0744
0.1350,-31.1458
0.1355,-39.0809
0.1360,-41.5225
0.1365,-39.0809
0.1370,-38.4705
0.1375,-48.5419
0.1380,-65.6328
0.1385,-76.0094
0.1390,-74.4835
0.1395,-68.6848
0.1400,-68.6848
0.1405,-74.7886
0.1410,-81.5029
0.1415,-84.8601
0.1420,-82.7237
0.1425,-74.1783
0.1430,-65.0224
0.1435,-63.8016
0.1440,-70.5159
0.1445,-72.3471
0.1450,-58.3081
0.1455,-35.1134
0.1460,-14.9705
0.1465,-0.3212
0.1470,17.0749
0.1475,40.8800
0.1480,63.1592
0.1485,75.9774
0.1490,78.4189
0.1495,68.6527
0.1500,41.1852
0.1505,2.1203
0.1510,-22.6004
0.1515,-11.0030
0.1520,25.9255
0.1525,52.7826
0.1530,49.7307
0.1535,36.6073
0.1540,44.5424
0.1545,74.4514
0.1550,97.6462
0.1555,95.8150
0.1560,78.4189
0.1565,66.2112
0.1570,63.1592
0.1575,59.8021
0.1580,48.5099
0.1585,32.6398
0.1590,20.4320
0.1595,16.7697
0.1600,21.6528
0.1605,28.9775
0.1610,29.5878
0.1615,20.4320
0.1620,6.6983
0.1625,-3.0680
0.1630,-8.2563
0.1635,-11.0030
0.1640,-10.6978
0.1645,-9.4770
0.1650,-13.4446
0.1655,-25.3472
0.1660,-37.2497
0.1665,-39.3861
0.1670,-33.5874
0.1675,-30.2303
0.1680,-34.5030
0.1685,-43.6588
0.1690,-55.8666
0.1695,-66.8536
0.1700,-63.8016
0.1705,-39.0809
0.1710,-11.3082
0.1715,-12.2238
0.1720,-42.4380
0.1725,-62.2757
0.1730,-35.4186
0.1735,23.1788
0.1740,67.7371
0.1745,70.1787
0.1750,39.6593
0.1755,-1.5420
0.1760,-38.1653
0.1765,-59.2237
0.1770,-57.6978
0.1775,-40.9121
0.1780,-26.8731
0.1785,-24.4316
0.1790,-28.3991
0.1795,-28.7043
0.1800,-21.3796
0.1805,-1.5420
0.1810,31.7242
0.1815,68.0423
0.1820,85.4384
0.1825,74.4514
0.1830,50.3411
0.1835,36.9125
0.1840,41.7956
0.1845,53.0878
0.1850,53.3930
0.1855,36.9125
0.1860,12.8022
0.1865,-5.2043
0.1870,-11.3082
0.1875,-9.7822
0.1880,-4.8991
0.1885,3.3411
0.1890,16.7697
0.1895,27.4515
0.1900,28.3671
0.1905,20.7372
0.1910,9.7502
0.1915,-3.3732
0.1920,-17.1069
0.1925,-22.2952
0.1930,-13.4446
0.1935,-2.4576
0.1940,-5.8147
0.1945,-21.6848
0.1950,-33.2822
0.1955,-30.8406
0.1960,-21.0744
0.1965,-10.0874
0.1970,2.4255
0.1975,14.6333
0.1980,16.1593
0.1985,6.6983
0.1990,1.8152
0.1995,10.6658
0.2000,23.7891
0.2005,25.0099
0.2010,13.7177
0.2015,-0.0160
0.2020,-11.6134
0.2025,-23.2108
0.2030,-31.4510
0.2035,-27.7887
0.2040,-8.8667
0.2045,17.6853
0.2050,40.2696
0.2055,50.3411
0.2060,45.7631
0.2065,34.1658
0.2070,24.7047
0.2075,19.2112
0.2080,8.8346
0.2085,-11.6134
0.2090,-33.5874
0.2095,-45.1848
0.2100,-49.4575
0.2105,-56.4770
0.2110,-65.3276
0.2115,-64.7172
0.2120,-55.2562
0.2125,-52.2043
0.2130,-56.4770
0.2135,-44.8796
0.2140,-2.7628
0.2145,48.2047
0.2150,70.1787
0.2155,53.6982
0.2160,25.0099
0.2165,8.8346
0.2170,5.1723
0.2175,4.8671
0.2180,4.2567
0.2185,3.0359
0.2190,-3.0680
0.2195,-13.1394
0.2200,-15.2757
0.2205,-5.2043
0.2210,4.2567
0.2215,4.8671
0.2220,8.5294
0.2225,35.9969
0.2230,84.2176
0.2235,128.1656
0.2240,148.9189
0.2245,148.3085
0.2250,132.4384
0.2255,99.1722
0.2260,49.4255
0.2265,-0.0160
0.2270,-25.6523
0.2275,-19.5485
0.2280,-0.3212
0.2285,6.3931
0.2290,-6.1199
0.2295,-25.3472
0.2300,-33.8926
0.2305,-29.3147
0.2310,-21.0744
0.2315,-16.4965
0.2320,-12.5290
0.2325,-6.4251
0.2330,-0.0160
0.2335,5.1723
0.2340,14.6333
0.2345,28.9775
0.2350,39.0489
0.2355,38.4385
0.2360,35.3865
0.2365,42.4060
0.2370,55.2242
0.2375,56.4450
0.2380,39.3541
0.2385,17.3801
0.2390,5.4775
0.2395,3.6463
0.2400,1.5100
0.2405,-2.7628
0.2410,-4.8991
0.2415,-3.3732
0.2420,-5.5095
0.2425,-18.6329
0.2430,-42.7432
0.2435,-69.9055
0.2440,-91.8795
0.2445,-103.7821
0.2450,-103.1717
0.2455,-92.1847
0.2460,-74.7886
0.2465,-57.0874
0.2470,-45.4900
0.2475,-39.3861
0.2480,-32.6718
0.2485,-20.7692
0.2490,-8.8667
0.2495,-5.8147
0.2500,-11.6134
0.2505,-16.8017
0.2510,-14.6653
0.2515,-9.4770
0.2520,-9.7822
0.2525,-16.1913
0.2530,-22.6004
0.2535,-24.4316
0.2540,-22.2952
0.2545,-18.0225
0.2550,-11.0030
0.2555,-1.5420
0.2560,7.0035
0.2565,10.0554
0.2570,3.3411
0.2575,-7.0355
0.2580,-11.3082
0.2585,-5.5095
0.2590,0.2892
0.2595,-0.9316
0.2600,-4.2887
0.2605,2.1203
0.2610,15.2437
0.2615,18.6008
0.2620,6.6983
0.2625,-8.5615
0.2630,-20.4640
0.2635,-34.5030
0.2640,-51.2887
0.2645,-57.6978
0.2650,-49.1523
0.2655,-43.6588
0.2660,-60.4445
0.2665,-87.9120
0.2670,-98.8990
0.2675,-84.8601
0.2680,-62.2757
0.2685,-49.1523
0.2690,-45.4900
0.2695,-43.9640
0.2700,-40.6069
0.2705,-38.4705
0.2710,-43.9640
0.2715,-57.0874
0.2720,-66.2432
0.2725,-60.1393
0.2730,-44.2692
0.2735,-37.5549
0.2740,-46.4056
0.2745,-56.4770
0.2750,-56.7822
0.2755,-48.2367
0.2760,-23.8212
0.2765,34.7761
0.2770,118.0942
0.2775,175.7760
0.2780,169.6721
0.2785,126.3345
0.2790,101.3085
0.2795,106.4968
0.2800,107.4124
0.2805,82.0813
0.2810,45.7631
0.2814,20.1268
0.2819,11.8866
0.2824,22.2632
0.2829,48.8151
0.2834,71.7047
0.2839,65.9060
0.2844,33.8606
0.2849,5.1723
0.2854,-3.0680
0.2859,-5.8147
0.2864,-17.1069
0.2869,-30.5355
0.2874,-35.7238
0.2879,-33.8926
0.2884,-29.6199
0.2889,-21.9900
0.2894,-11.9186
0.2899,-5.2043
0.2904,-1.5420
0.2909,7.6138
0.2914,27.1463
0.2919,51.8670
0.2924,75.0618
0.2929,92.1527
0.2934,97.0358
0.2939,87.8800
0.2944,70.7891
0.2949,54.0034
0.2954,36.9125
0.2959,17.0749
0.2964,2.7307
0.2969,1.8152
0.2974,7.6138
0.2979,8.5294
0.2984,5.7827
0.2989,7.0035
0.2994,8.8346
0.2999,4.8671
0.3004,-0.6264
0.3009,1.2048
0.3014,5.4775
0.3019,-0.9316
0.3024,-17.7173
0.3029,-32.9770
0.3034,-43.3536
0.3039,-58.6133
0.3044,-81.8081
0.3049,-107.7496
0.3054,-134.3016
0.3059,-160.8535
0.3064,-178.8599
0.3069,-174.5872
0.3074,-142.8470
0.3079,-88.2172
0.3084,-18.0225
0.3089,52.4774
0.3094,96.7306
0.3099,97.6462
0.3104,71.3995
0.3109,53.0878
0.3114,56.1398
0.3119,67.1268
0.3124,71.7047
0.3129,71.3995
0.3134,70.1787
0.3139,64.6852
0.3144,56.4450
0.3149,57.0553
0.3154,70.1787
0.3159,82.6917
0.3164,79.9449
0.3169,64.9904
0.3174,52.1722
0.3179,46.9839
0.3184,43.3216
0.3189,36.9125
0.3194,32.0294
0.3199,33.5554
0.3204,35.3865
0.3209,27.4515
0.3214,10.3606
0.3219,0.2892
0.3224,11.2762
0.3229,33.8606
0.3234,45.4580
0.3239,34.1658
0.3244,13.1073
0.3249,0.5944
0.3254,-0.9316
0.3259,-0.0160
0.3264,-0.6264
0.3269,-0.6264
0.3274,-0.0160
0.3279,-1.2368
0.3284,-5.8147
0.3289,-10.6978
0.3294,-13.4446
0.3299,-14.9705
0.3304,-15.5809
0.3309,-16.1913
0.3314,-19.2433
0.3319,-23.8212
0.3324,-25.0420
0.3329,-21.0744
0.3334,-17.7173
0.3339,-21.3796
0.3344,-28.3991
0.3349,-29.3147
0.3354,-23.8212
0.3359,-20.1588
0.3364,-25.3472
0.3369,-35.7238
0.3374,-43.3536
0.3379,-43.0484
0.3384,-35.7238
0.3389,-25.9575
0.3394,-18.0225
0.3399,-12.5290
0.3404,-8.8667
0.3409,-6.4251
0.3414,-5.5095
0.3419,-2.7628
0.3424,4.5619
0.3429,15.5489
0.3434,23.1788
0.3439,24.3995
0.3444,21.6528
0.3449,19.8216
0.3454,17.9905
0.3459,13.1073
0.3464,5.1723
0.3469,-3.3732
0.3474,-10.6978
0.3479,-15.8861
0.3484,-18.9381
0.3489,-20.7692
0.3494,-21.6848
0.3499,-20.7692
0.3504,-17.4121
0.3509,-14.0550
0.3514,-14.6653
0.3519,-18.9381
0.3524,-21.6848
0.3529,-22.6004
0.3534,-25.0420
0.3539,-30.5355
0.3544,-36.0290
0.3549,-39.6913
0.3554,-40.6069
0.3559,-39.0809
0.3564,-33.8926
0.3569,-26.2627
0.3574,-18.6329
0.3579,-10.3926
0.3584,-2.4576
0.3589,-2.7628
0.3594,-16.4965
0.3599,-35.1134
0.3604,-45.7952
0.3609,-47.6263
0.3614,-46.7108
0.3619,-35.4186
0.3624,-0.0160
0.3629,50.0359
0.3634,79.0293
0.3639,64.0748
0.3644,26.2307
0.3649,3.0359
0.3654,3.9515
0.3659,7.0035
0.3664,-3.3732
0.3669,-19.2433
0.3674,-26.2627
0.3679,-21.9900
0.3684,-13.1394
0.3689,-4.2887
0.3694,2.4255
0.3699,7.0035
0.3704,9.1398
0.3709,10.6658
0.3714,12.4970
0.3719,12.8022
0.3724,9.1398
0.3729,1.8152
0.3734,-5.2043
0.3739,-8.5615
0.3744,-4.8991
0.3749,1.2048
0.3754,3.6463
0.3759,-0.3212
0.3764,-6.1199
0.3769,-6.7303
0.3774,-2.7628
0.3779,0.8996
0.3784,3.0359
0.3789,4.8671
0.3794,7.0035
0.3799,5.7827
0.3804,0.2892
0.3809,-6.1199
0.3814,-10.0874
0.3819,-11.9186
0.3824,-14.9705
0.3829,-18.6329
0.3834,-19.8537
0.3839,-16.1913
0.3844,-10.6978
0.3849,-8.2563
0.3854,-9.1718
0.3859,-9.4770
0.3864,-7.9511
0.3869,-5.8147
0.3874,-3.3732
0.3879,0.8996
0.3884,8.5294
0.3889,16.4645
0.3894,22.2632
0.3899,23.7891
0.3904,18.2956
0.3909,8.5294
0.3914,3.0359
0.3919,10.0554
0.3924,25.6203
0.3929,36.6073
0.3934,36.9125
0.3939,31.4190
0.3944,25.6203
0.3949,18.6008
0.3954,9.1398
0.3959,3.6463
0.3964,6.6983
0.3969,13.4125
0.3974,16.7697
0.3979,16.4645
0.3984,15.5489
0.3989,14.6333
0.3994,10.9710
0.3999,5.1723
0.4004,1.5100
0.4009,2.4255
0.4014,8.2242
0.4019,17.3801
0.4024,25.9255
0.4029,28.9775
0.4034,24.7047
0.4039,17.0749
0.4044,11.2762
0.4049,7.6138
0.4054,1.8152
0.4059,-8.8667
0.4064,-22.9056
0.4069,-30.5355
0.4074,-25.3472
0.4079,-10.0874
0.4084,2.4255
0.4089,2.7307
0.4094,-7.0355
0.4099,-17.4121
0.4104,-21.9900
0.4109,-23.5160
0.4114,-26.8731
0.4119,-34.5030
0.4124,-43.6588
0.4129,-49.1523
0.4134,-45.4900
0.4139,-36.6393
0.4144,-32.6718
0.4149,-37.5549
0.4154,-40.3017
0.4159,-28.3991
0.4164,-0.9316
0.4169,33.8606
0.4174,72.3151
0.4179,112.2955
0.4184,144.3409
0.4189,155.3279
0.4194,142.8150
0.4199,116.5682
0.4204,87.2696
0.4209,60.1073
0.4214,39.6593
0.4219,28.9775
0.4224,25.0099
0.4229,19.5164
0.4234,10.9710
0.4239,5.7827
0.4244,7.6138
0.4249,10.9710
0.4254,8.8346
0.4259,2.1203
0.4264,-4.8991
0.4269,-10.3926
0.4274,-14.3602
0.4279,-16.4965
0.4284,-16.1913
0.4289,-11.3082
0.4294,-1.5420
0.4299,7.3087
0.4304,6.3931
0.4309,-5.2043
0.4314,-18.0225
0.4319,-22.9056
0.4324,-21.3796
0.4329,-21.0744
0.4334,-23.8212
0.4339,-26.2627
0.4344,-26.8731
0.4349,-27.4835
0.4354,-27.1783
0.4359,-25.0420
0.4364,-23.8212
0.4369,-25.3472
0.4374,-25.9575
0.4379,-22.2952
0.4384,-17.1069
0.4389,-14.6653
0.4394,-12.2238
0.4399,-6.7303
0.4404,-3.3732
0.4409,-8.2563
0.4414,-17.4121
0.4419,-21.0744
0.4424,-19.5485
0.4429,-20.4640
0.4434,-25.9575
0.4439,-29.0095
0.4444,-26.8731
0.4449,-22.9056
0.4454,-18.3277
0.4459,-7.6459
0.4464,7.9190
0.4469,18.9060
0.4474,15.8541
0.4479,4.2567
0.4484,-6.1199
0.4489,-11.6134
0.4494,-13.7498
0.4499,-14.3602
0.4504,-11.6134
0.4509,-6.4251
0.4514,0.5944
0.4519,7.6138
0.4524,12.8022
0.4529,14.3281
0.4534,13.7177
0.4539,11.8866
0.4544,8.5294
0.4549,2.1203
0.4554,-5.2043
0.4559,-10.3926
0.4564,-12.8342
0.4569,-14.0550
0.4574,-15.2757
0.4579,-14.6653
0.4584,-13.4446
0.4589,-15.2757
0.4594,-20.4640
0.4599,-24.7368
0.4604,-25.9575
0.4609,-25.9575
0.4614,-24.1264
0.4619,-14.6653
0.4624,1.2048
0.4629,13.7177
0.4634,12.8022
0.4639,2.1203
0.4644,-3.6783
0.4649,0.5944
0.4654,7.3087
0.4659,7.0035
0.4664,1.8152
0.4669,-0.0160
0.4674,3.3411
0.4679,6.3931
0.4684,9.1398
0.4689,16.7697
0.4694,30.5034
0.4699,41.1852
0.4704,39.9645
0.4709,27.4515
0.4714,12.1918
0.4719,0.5944
0.4724,-7.9511
0.4729,-18.0225
0.4734,-31.4510
0.4739,-47.9315
0.4744,-62.5809
0.4749,-72.3471
0.4754,-77.5354
0.4759,-81.5029
0.4764,-83.6393
0.4769,-81.8081
0.4774,-82.1133
0.4779,-93.4055
0.4784,-112.6328
0.4789,-121.1782
0.4794,-108.3600
0.4799,-83.6393
0.4804,-59.5289
0.4809,-32.3666
0.4814,7.3087
0.4819,54.0034
0.4824,92.4579
0.4829,122.9773
0.4834,158.0747
0.4839,198.3604
0.4844,227.9642
0.4849,234.6785
0.4854,221.8603
0.4859,194.3928
0.4864,151.6656
0.4869,100.0878
0.4874,58.8865
0.4879,40.5748
0.4884,38.4385
0.4889,37.5229
0.4894,32.0294
0.4899,26.8411
0.4904,23.4840
0.4909,19.2112
0.4914,11.5814
0.4919,0.2892
0.4924,-12.5290
0.4929,-22.2952
0.4934,-25.9575
0.4939,-25.9575
0.4944,-28.0939
0.4949,-32.0614
0.4954,-33.5874
0.4959,-33.2822
0.4964,-35.4186
0.4969,-38.7757
0.4974,-36.6393
0.4979,-28.3991
0.4984,-21.0744
0.4989,-18.0225
0.4994,-14.3602
0.4999,-8.8667
0.5004,-7.6459
0.5009,-15.2757
0.5014,-25.9575
0.5019,-31.1458
0.5024,-30.5355
0.5029,-29.9251
0.5034,-31.1458
0.5039,-32.6718
0.5044,-32.9770
0.5049,-31.7562
0.5054,-29.9251
0.5059,-29.3147
0.5064,-32.0614
0.5069,-36.3341
0.5074,-36.0290
0.5079,-28.3991
0.5084,-18.0225
0.5089,-11.9186
0.5094,-11.0030
0.5099,-11.6134
0.5104,-10.0874
0.5109,-7.3407
0.5114,-5.2043
0.5119,-6.1199
0.5124,-10.0874
0.5129,-16.1913
0.5134,-20.1588
0.5139,-20.1588
0.5144,-17.4121
0.5149,-14.3602
0.5154,-11.6134
0.5159,-8.5615
0.5164,-6.4251
0.5169,-7.0355
0.5174,-10.3926
0.5179,-14.3602
0.5184,-15.5809
0.5189,-14.6653
0.5194,-13.1394
0.5199,-11.0030
0.5204,-7.6459
0.5209,-4.2887
0.5214,-4.5939
0.5219,-9.1718
0.5224,-14.0550
0.5229,-16.1913
0.5234,-17.1069
0.5239,-18.9381
0.5244,-20.4640
0.5249,-18.3277
0.5254,-12.5290
0.5259,-7.3407
0.5264,-4.8991
0.5269,-4.2887
0.5274,-3.6783
0.5279,-3.6783
0.5284,-4.5939
0.5289,-4.8991
0.5294,-4.5939
0.5299,-3.6783
0.5304,-3.6783
0.5309,-5.5095
0.5314,-8.5615
0.5319,-11.0030
0.5324,-12.5290
0.5329,-12.8342
0.5334,-12.5290
0.5339,-10.0874
0.5344,-3.9835
0.5349,3.9515
0.5354,12.4970
0.5359,21.3476
0.5364,31.4190
0.5369,40.5748
0.5374,43.6268
0.5379,39.3541
0.5384,33.2502
0.5389,29.5878
0.5394,27.1463
0.5399,22.5684
0.5404,16.4645
0.5409,11.2762
0.5414,7.0035
0.5419,3.0359
0.5424,1.2048
0.5429,3.6463
0.5434,7.6138
0.5439,9.1398
0.5444,7.9190
0.5449,7.3087
0.5454,8.5294
0.5459,8.5294
0.5464,6.6983
0.5469,5.4775
0.5474,5.7827
0.5479,6.3931
0.5484,6.3931
0.5489,6.6983
0.5494,6.3931
0.5499,3.3411
0.5504,-2.7628
0.5509,-10.6978
0.5514,-18.9381
0.5519,-28.3991
0.5524,-37.2497
0.5529,-42.4380
0.5534,-43.0484
0.5539,-37.8601
0.5544,-21.6848
0.5549,9.4450
0.5554,46.9839
0.5559,70.7891
0.5564,70.7891
0.5569,57.9709
0.5574,50.9515
0.5579,55.2242
0.5584,60.7177
0.5589,57.3605
0.5594,45.7631
0.5599,32.3346
0.5604,22.2632
0.5609,17.3801
0.5614,15.8541
0.5619,15.5489
0.5624,16.4645
0.5629,20.4320
0.5634,25.9255
0.5639,26.5359
0.5644,19.8216
0.5649,12.4970
0.5654,12.4970
0.5659,16.7697
0.5664,17.0749
0.5669,10.9710
0.5674,4.8671
0.5679,2.7307
0.5684,0.5944
0.5689,-4.8991
0.5694,-11.0030
0.5699,-13.1394
0.5704,-14.0550
0.5709,-17.4121
0.5714,-21.0744
0.5719,-20.1588
0.5724,-15.8861
0.5729,-12.8342
0.5734,-13.4446
0.5739,-15.2757
0.5744,-18.0225
0.5749,-22.6004
0.5754,-25.9575
0.5759,-21.9900
0.5764,-12.8342
0.5769,-7.3407
0.5774,-7.9511
0.5779,-8.2563
0.5784,-4.5939
0.5789,-3.0680
0.5794,-7.6459
0.5799,-8.8667
0.5804,-0.0160
0.5809,10.9710
0.5814,11.8866
0.5819,7.9190
0.5824,10.9710
0.5829,17.0749
0.5834,10.9710
0.5839,-6.4251
0.5844,-20.1588
0.5849,-22.2952
0.5854,-21.6848
0.5859,-23.5160
0.5864,-19.5485
0.5869,-4.2887
0.5874,10.3606
0.5879,11.5814
0.5884,1.5100
0.5889,-11.3082
0.5894,-23.8212
0.5899,-34.1978
0.5904,-36.9445
0.5909,-32.0614
0.5914,-27.7887
0.5919,-29.0095
0.5924,-26.5679
0.5929,-14.0550
0.5934,-2.1524
0.5939,-4.5939
0.5944,-14.3602
0.5949,-10.0874
0.5954,13.4125
0.5959,37.5229
0.5964,41.7956
0.5969,27.7567
0.5974,12.1918
0.5979,6.3931
0.5984,11.8866
0.5989,28.0619
0.5994,51.2566
0.5999,69.5683
0.6004,69.2631
0.6009,51.5618
0.6014,34.1658
0.6019,31.1138
0.6024,35.3865
0.6029,30.1982
0.6034,12.4970
0.6039,-1.5420
0.6044,-1.5420
0.6049,6.3931
0.6054,10.3606
0.6059,9.1398
0.6064,9.1398
0.6069,12.1918
0.6074,11.5814
0.6079,6.3931
0.6084,2.1203
0.6089,1.2048
0.6094,-0.9316
0.6099,-7.9511
0.6104,-16.4965
0.6109,-22.2952
0.6114,-26.5679
0.6119,-30.5355
0.6124,-32.6718
0.6129,-31.7562
0.6134,-29.3147
0.6139,-26.2627
0.6144,-21.3796
0.6149,-15.8861
0.6154,-12.2238
0.6159,-12.2238
0.6164,-13.4446
0.6169,-13.7498
0.6174,-14.6653
0.6179,-16.4965
0.6184,-16.4965
0.6189,-12.2238
0.6194,-6.4251
0.6199,-3.6783
0.6204,-5.2043
0.6209,-8.2563
0.6214,-11.6134
0.6219,-15.5809
0.6224,-20.4640
0.6229,-23.8212
0.6234,-23.5160
0.6239,-21.3796
0.6244,-21.0744
0.6249,-25.3472
0.6254,-31.7562
0.6259,-36.9445
0.6264,-40.9121
0.6269,-44.2692
0.6274,-46.4056
0.6279,-44.8796
0.6284,-42.4380
0.6289,-42.4380
0.6294,-42.7432
0.6299,-36.6393
0.6304,-22.2952
0.6309,-9.1718
0.6314,-8.5615
0.6319,-21.9900
0.6324,-39.0809
0.6329,-44.5744
0.6334,-33.8926
0.6339,-22.6004
0.6344,-34.5030
0.6349,-69.9055
0.6354,-93.1003
0.6359,-67.4640
0.6364,-3.9835
0.6369,48.2047
0.6374,62.8540
0.6379,61.9385
0.6384,74.4514
0.6389,92.1527
0.6394,91.8475
0.6399,77.8086
0.6404,73.5358
0.6409,81.4709
0.6414,78.4189
0.6419,57.9709
0.6424,41.4904
0.6429,46.3735
0.6434,62.8540
0.6439,73.8410
0.6444,79.3345
0.6449,84.8280
0.6454,83.3021
0.6459,64.6852
0.6464,35.6917
0.6469,14.0229
0.6474,4.5619
0.6479,-1.2368
0.6484,-10.0874
0.6489,-17.1069
0.6494,-19.2433
0.6499,-20.4640
0.6504,-21.0744
0.6509,-14.0550
0.6514,3.3411
0.6519,19.2112
0.6524,19.5164
0.6529,8.5294
0.6534,3.3411
0.6539,11.2762
0.6544,21.9580
0.6549,22.2632
0.6554,13.1073
0.6559,3.9515
0.6564,-1.5420
0.6569,-6.4251
0.6574,-10.6978
0.6579,-12.2238
0.6584,-11.6134
0.6589,-12.5290
0.6594,-15.5809
0.6599,-15.8861
0.6604,-10.6978
0.6609,-4.5939
0.6614,-2.1524
0.6619,-3.9835
0.6624,-6.7303
0.6629,-6.7303
0.6634,-5.2043
0.6639,-4.8991
0.6644,-7.9511
0.6649,-13.7498
0.6654,-20.4640
0.6659,-25.3472
0.6664,-27.4835
0.6669,-27.1783
0.6674,-27.1783
0.6679,-30.5355
0.6684,-36.9445
0.6689,-40.3017
0.6694,-35.7238
0.6699,-26.2627
0.6704,-18.9381
0.6709,-16.8017
0.6714,-16.1913
0.6719,-12.5290
0.6724,-6.1199
0.6729,-0.0160
0.6734,4.2567
0.6739,5.4775
0.6744,3.6463
0.6749,-0.3212
0.6754,-4.5939
0.6759,-8.2563
0.6764,-10.3926
0.6769,-9.1718
0.6774,-4.2887
0.6779,1.2048
0.6784,4.8671
0.6789,7.6138
0.6794,11.2762
0.6799,12.4970
0.6804,7.0035
0.6809,-3.0680
0.6814,-11.3082
0.6819,-14.6653
0.6824,-14.9705
0.6829,-14.6653
0.6834,-14.6653
0.6839,-18.0225
0.6844,-27.7887
0.6849,-38.7757
0.6854,-43.3536
0.6859,-43.9640
0.6864,-49.7627
0.6869,-59.2237
0.6874,-60.7497
0.6879,-50.6783
0.6884,-36.9445
0.6889,-22.2952
0.6894,2.7307
0.6899,36.3021
0.6904,53.3930
0.6909,38.1333
0.6914,14.3281
0.6919,17.3801
0.6924,48.2047
0.6929,75.0618
0.6934,76.8930
0.6939,63.1592
0.6944,48.2047
0.6949,31.7242
0.6954,12.1918
0.6959,-1.2368
0.6964,-2.1524
0.6969,0.5944
0.6974,-1.8472
0.6979,-7.6459
0.6984,-9.4770
0.6989,-9.1718
0.6994,-9.4770
0.6999,-7.6459
0.7004,-0.0160
0.7009,8.5294
0.7014,11.8866
0.7019,11.2762
0.7024,12.1918
0.7029,12.4970
0.7034,9.1398
0.7039,5.1723
0.7044,6.0879
0.7049,8.8346
0.7054,6.6983
0.7059,-0.0160
0.7064,-7.0355
0.7069,-11.6134
0.7074,-16.8017
0.7079,-23.8212
0.7084,-31.1458
0.7089,-38.1653
0.7094,-44.8796
0.7099,-49.4575
0.7104,-50.0679
0.7109,-50.6783
0.7114,-52.8146
0.7119,-51.5939
0.7124,-40.3017
0.7129,-19.2433
0.7134,4.5619
0.7139,24.3995
0.7144,31.7242
0.7149,20.7372
0.7154,1.8152
0.7159,-0.3212
0.7164,22.8736
0.7169,49.1203
0.7174,47.5943
0.7179,20.1268
0.7184,-6.1199
0.7189,-19.2433
0.7194,-30.5355
0.7199,-46.4056
0.7204,-54.0354
0.7209,-47.6263
0.7214,-38.1653
0.7219,-29.9251
0.7224,-13.7498
0.7229,7.6138
0.7234,14.6333
0.7239,5.4775
0.7244,7.6138
0.7249,30.5034
0.7254,40.8800
0.7259,17.0749
0.7264,0.2892
0.7269,47.5943
0.7274,144.9513
0.7279,213.6201
0.7284,205.0746
0.7289,149.8344
0.7294,102.8345
0.7299,80.5553
0.7304,65.2956
0.7309,47.2891
0.7314,29.8930
0.7319,15.8541
0.7324,1.8152
0.7329,-12.8342
0.7334,-29.0095
0.7339,-47.3211
0.7344,-65.0224
0.7349,-77.8406
0.7354,-86.3860
0.7359,-90.3536
0.7364,-77.2302
0.7369,-33.8926
0.7374,29.2826
0.7379,80.2501
0.7384,96.7306
0.7389,87.8800
0.7394,75.6722
0.7399,65.2956
0.7404,48.5099
0.7409,25.3151
0.7414,5.1723
0.7419,-3.3732
0.7424,-3.9835
0.7429,-3.6783
0.7434,-3.3732
0.7439,-1.8472
0.7444,1.2048
0.7449,2.7307
0.7454,-0.0160
0.7459,-5.2043
0.7464,-8.5615
0.7469,-9.1718
0.7474,-10.0874
0.7479,-11.0030
0.7484,-9.1718
0.7489,-5.2043
0.7494,-4.5939
0.7499,-10.0874
0.7504,-15.5809
0.7509,-14.6653
0.7514,-10.0874
0.7519,-7.0355
0.7524,-6.1199
0.7529,-5.5095
0.7534,-5.5095
0.7539,-7.0355
0.7544,-8.5615
0.7549,-7.3407
0.7554,-6.4251
0.7559,-9.1718
0.7564,-13.1394
0.7569,-13.1394
0.7574,-9.4770
0.7579,-8.2563
0.7584,-12.2238
0.7589,-17.7173
0.7594,-20.1588
0.7599,-19.5485
0.7604,-17.7173
0.7609,-16.8017
0.7614,-16.8017
0.7619,-17.4121
0.7624,-18.3277
0.7629,-19.5485
0.7634,-21.0744
0.7639,-22.6004
0.7644,-22.6004
0.7649,-20.1588
0.7654,-17.1069
0.7659,-15.2757
0.7664,-15.2757
0.7669,-17.4121
0.7674,-19.8537
0.7679,-20.7692
0.7684,-18.6329
0.7689,-14.3602
0.7694,-11.0030
0.7699,-9.7822
0.7704,-10.0874
0.7709,-10.6978
0.7714,-12.8342
0.7719,-15.5809
0.7724,-16.1913
0.7729,-14.6653
0.7734,-13.1394
0.7739,-13.4446
0.7744,-14.3602
0.7749,-14.3602
0.7754,-13.4446
0.7759,-12.8342
0.7764,-12.5290
0.7769,-12.2238
0.7774,-11.9186
0.7779,-11.9186
0.7784,-11.0030
0.7789,-9.1718
0.7794,-7.0355
0.7799,-6.1199
0.7804,-5.8147
0.7809,-6.1199
0.7814,-6.7303
0.7819,-7.9511
0.7824,-8.5615
0.7829,-7.9511
0.7834,-7.0355
0.7839,-7.6459
0.7844,-8.5615
0.7849,-7.6459
0.7854,-4.5939
0.7859,-1.5420
0.7864,-0.0160
0.7869,0.8996
0.7874,3.0359
0.7879,6.6983
0.7884,10.3606
0.7889,12.4970
0.7894,12.1918
0.7899,8.5294
0.7904,3.6463
0.7909,0.5944
0.7914,-0.0160
0.7919,-0.6264
0.7924,-3.0680
0.7929,-6.4251
0.7934,-7.9511
0.7939,-8.2563
0.7944,-9.4770
0.7949,-11.3082
0.7954,-10.0874
0.7959,-4.5939
0.7964,1.5100
0.7969,6.6983
0.7974,11.8866
0.7979,18.9060
0.7984,24.7047
0.7989,25.3151
0.7994,20.4320
0.7999,14.3281
0.8004,10.0554
0.8009,8.2242
0.8014,8.5294
0.8019,10.3606
0.8024,11.5814
0.8029,10.3606
0.8034,7.9190
0.8039,5.7827
0.8044,3.9515
0.8049,2.1203
0.8054,1.2048
0.8059,0.8996
0.8064,0.2892
0.8069,-0.6264
0.8074,-0.9316
0.8079,0.5944
0.8084,3.0359
0.8089,3.9515
0.8094,3.6463
0.8099,4.2567
0.8104,5.1723
0.8109,5.1723
0.8114,4.2567
0.8119,3.0359
0.8124,1.5100
0.8129,-0.6264
0.8134,-2.7628
0.8139,-3.6783
0.8144,-4.2887
0.8149,-3.9835
0.8154,-1.8472
0.8159,2.7307
0.8164,7.6138
0.8169,8.8346
0.8174,7.0035
0.8179,6.3931
0.8184,7.6138
0.8189,7.3087
0.8194,4.2567
0.8199,1.8152
0.8204,1.5100
0.8209,1.5100
0.8214,-0.6264
0.8219,-3.0680
0.8224,-2.7628
0.8229,-0.6264
0.8234,0.5944
0.8239,1.5100
0.8244,2.7307
0.8249,3.6463
0.8254,2.7307
0.8259,-0.0160
0.8264,-1.5420
0.8269,-2.1524
0.8274,-0.3212
0.8279,3.6463
0.8284,9.7502
0.8289,14.0229
0.8294,15.2437
0.8299,13.7177
0.8304,11.5814
0.8309,8.2242
0.8314,4.5619
0.8319,2.4255
0.8324,2.7307
0.8329,2.7307
0.8334,-0.0160
0.8339,-3.3732
0.8344,-5.5095
0.8349,-7.9511
0.8354,-12.8342
0.8359,-17.7173
0.8364,-18.6329
0.8369,-15.5809
0.8374,-10.3926
0.8379,-0.3212
0.8384,16.1593
0.8389,35.3865
0.8394,50.0359
0.8399,58.5813
0.8404,63.1592
0.8409,63.1592
0.8414,56.4450
0.8419,47.5943
0.8424,45.7631
0.8429,49.7307
0.8434,49.4255
0.8438,37.8281
0.8443,17.9905
0.8448,-7.3407
0.8453,-42.7432
0.8458,-86.3860
0.8463,-120.5678
0.8468,-125.7561
0.8473,-102.2561
0.8478,-72.0419
0.8483,-56.4770
0.8488,-57.6978
0.8493,-64.7172
0.8498,-68.6848
0.8503,-67.7692
0.8508,-63.1913
0.8513,-53.4250
0.8518,-37.5549
0.8523,-19.5485
0.8528,-3.9835
0.8533,10.0554
0.8538,25.6203
0.8543,39.6593
0.8548,46.0683
0.8553,43.9320
0.8558,39.6593
0.8563,37.8281
0.8568,38.7437
0.8573,40.8800
0.8578,45.4580
0.8583,51.2566
0.8588,51.2566
0.8593,41.1852
0.8598,25.3151
0.8603,14.3281
0.8608,14.6333
0.8613,23.7891
0.8618,32.6398
0.8623,33.5554
0.8628,25.9255
0.8633,17.0749
0.8638,15.5489
0.8643,19.2112
0.8648,19.8216
0.8653,14.0229
0.8658,7.9190
0.8663,8.5294
0.8668,14.0229
0.8673,18.6008
0.8678,19.2112
0.8683,17.3801
0.8688,17.6853
0.8693,21.3476
0.8698,25.0099
0.8703,25.3151
0.8708,22.5684
0.8713,19.8216
0.8718,14.9385
0.8723,-0.6264
0.8728,-29.3147
0.8733,-57.0874
0.8738,-68.3796
0.8743,-61.0549
0.8748,-45.4900
0.8753,-30.8406
0.8758,-20.1588
0.8763,-15.8861
0.8768,-17.7173
0.8773,-18.9381
0.8778,-12.8342
0.8783,-3.0680
0.8788,0.2892
0.8793,-0.6264
0.8798,2.1203
0.8803,12.1918
0.8808,21.9580
0.8813,26.8411
0.8818,29.2826
0.8823,31.4190
0.8828,30.5034
0.8833,29.2826
0.8838,28.9775
0.8843,16.1593
0.8848,-24.7368
0.8853,-82.4185
0.8858,-115.0743
0.8863,-97.6782
0.8868,-54.0354
0.8873,-24.4316
0.8878,-13.7498
0.8883,4.5619
0.8888,43.3216
0.8893,80.8605
0.8898,93.3735
0.8903,81.4709
0.8908,58.8865
0.8913,35.6917
0.8918,18.6008
0.8923,13.4125
0.8928,12.1918
0.8933,-2.7628
0.8938,-32.3666
0.8943,-47.9315
0.8948,-24.7368
0.8953,22.8736
0.8958,59.1917
0.8963,69.8735
0.8968,66.8216
0.8973,57.3605
0.8978,32.3346
0.8983,-6.1199
0.8988,-29.9251
0.8993,-16.8017
0.8998,16.1593
0.9003,30.5034
0.9008,8.5294
0.9013,-29.9251
0.9018,-54.9510
0.9023,-50.6783
0.9028,-25.3472
0.9033,-4.2887
0.9038,-10.3926
0.9043,-40.6069
0.9048,-64.1068
0.9053,-60.1393
0.9058,-50.3731
0.9063,-74.7886
0.9068,-134.9119
0.9073,-184.3534
0.9078,-183.7430
0.9083,-142.2366
0.9088,-95.5419
0.9093,-59.8341
0.9098,-27.7887
0.9103,5.4775
0.9108,34.1658
0.9113,54.6138
0.9118,73.5358
0.9123,97.0358
0.9128,122.9773
0.9133,143.4254
0.9138,152.5812
0.9143,153.1916
0.9148,151.3604
0.9153,143.1202
0.9158,105.8864
0.9163,17.9905
0.9168,-105.9185
0.9173,-216.0937
0.9178,-267.3663
0.9183,-255.4637
0.9188,-204.8015
0.9193,-141.6262
0.9198,-82.7237
0.9203,-40.9121
0.9208,-21.3796
0.9213,-14.6653
0.9218,-8.8667
0.9223,-4.8991
0.9228,-8.5615
0.9233,-17.1069
0.9238,-18.3277
0.9243,-7.3407
0.9248,8.8346
0.9253,21.9580
0.9258,31.4190
0.9263,42.4060
0.9268,56.7501
0.9273,65.6008
0.9278,56.4450
0.9283,27.1463
0.9288,-5.8147
0.9293,-19.2433
0.9298,-6.4251
0.9303,14.6333
0.9308,22.5684
0.9313,13.1073
0.9318,-3.0680
0.9323,-15.5809
0.9328,-20.1588
0.9333,-17.7173
0.9338,-11.3082
0.9343,-4.5939
0.9348,3.0359
0.9353,17.9905
0.9358,39.9645
0.9363,59.1917
0.9368,65.2956
0.9373,58.2761
0.9378,45.4580
0.9383,33.8606
0.9388,30.1982
0.9393,36.9125
0.9398,46.3735
0.9403,40.8800
0.9408,16.4645
0.9413,-6.7303
0.9418,-6.7303
0.9423,15.2437
0.9428,40.8800
0.9433,60.4125
0.9438,75.6722
0.9443,85.7436
0.9448,87.8800
0.9453,88.1852
0.9458,95.5098
0.9463,104.0553
0.9468,102.5293
0.9473,95.8150
0.9478,97.3410
0.9483,98.2566
0.9488,75.0618
0.9493,28.9775
0.9498,-7.6459
0.9503,-19.2433
0.9508,-29.0095
0.9513,-64.1068
0.9518,-112.6328
0.9523,-143.1522
0.9528,-148.6457
0.9533,-149.5613
0.9538,-160.8535
0.9543,-172.4509
0.9548,-165.4314
0.9553,-132.4704
0.9558,-80.5873
0.9563,-26.2627
0.9568,16.1593
0.9573,45.1528
0.9578,65.6008
0.9583,79.3345
0.9588,84.5228
0.9593,88.4904
0.9598,102.5293
0.9603,126.0293
0.9608,142.2046
0.9613,140.6786
0.9618,125.1137
0.9623,97.3410
0.9628,54.0034
0.9633,6.0879
0.9638,-15.5809
0.9643,3.9515
0.9648,35.6917
0.9653,30.8086
0.9658,-27.4835
0.9663,-107.1393
0.9668,-161.1587
0.9673,-165.4314
0.9678,-129.1132
0.9683,-80.2821
0.9688,-43.9640
0.9693,-28.0939
0.9698,-24.1264
0.9703,-23.2108
0.9708,-24.1264
0.9713,-28.3991
0.9718,-31.1458
0.9723,-25.0420
0.9728,-11.6134
0.9733,0.2892
0.9738,5.7827
0.9743,6.6983
0.9748,6.0879
0.9753,4.8671
0.9758,4.2567
0.9763,7.3087
0.9768,13.7177
0.9773,18.6008
0.9778,17.6853
0.9783,14.0229
0.9788,14.0229
0.9793,17.0749
0.9798,17.9905
0.9803,17.3801
0.9808,20.4320
0.9813,28.6723
0.9818,36.6073
0.9823,42.4060
0.9828,51.8670
0.9833,61.0229
0.9838,52.7826
0.9843,21.3476
0.9848,-11.3082
0.9853,-17.4121
0.9858,2.1203
0.9863,21.3476
0.9868,21.3476
0.9873,3.6463
0.9878,-23.8212
0.9883,-52.8146
0.9888,-68.3796
0.9893,-56.1718
0.9898,-22.6004
0.9903,10.3606
0.9908,33.5554
0.9913,54.3086
0.9918,75.9774
0.9923,89.1008
0.9928,89.4059
0.9933,84.2176
0.9938,73.8410
0.9943,48.5099
0.9948,15.8541
0.9953,1.8152
0.9958,11.8866
0.9963,14.3281
0.9968,-17.7173
0.9973,-65.6328
0.9978,-87.9120
0.9983,-73.8731
0.9988,-50.3731
0.9993,-39.9965
0.9998,-44.2692
1.0003,-59.2237
1.0008,-86.3860
1.0013,-116.6003
1.0018,-126.6717
1.0023,-105.9185
1.0028,-70.8211
1.0033,-43.3536
1.0038,-28.3991
1.0043,-18.6329
1.0048,-11.6134
1.0053,-10.6978
1.0058,-15.2757
1.0063,-18.6329
1.0068,-16.4965
1.0073,-12.5290
1.0078,-11.3082
1.0083,-12.2238
1.0088,-11.9186
1.0093,-9.4770
1.0098,-7.0355
1.0103,-5.8147
1.0108,-4.2887
1.0113,-0.9316
1.0118,2.4255
1.0123,3.6463
1.0128,1.8152
1.0133,0.8996
1.0138,2.7307
1.0143,4.5619
1.0148,3.0359
1.0153,-0.0160
1.0158,-0.3212
1.0163,1.8152
1.0168,3.9515
1.0173,5.7827
1.0178,10.0554
1.0183,16.1593
1.0188,21.6528
1.0193,25.3151
1.0198,29.2826
1.0203,32.0294
1.0208,29.8930
1.0213,21.3476
1.0218,9.4450
1.0223,-3.3732
1.0228,-14.3602
1.0233,-16.4965
1.0238,-6.7303
1.0243,6.6983
1.0248,12.4970
1.0253,10.6658
1.0258,10.0554
1.0263,10.9710
1.0268,7.9190
1.0273,3.9515
1.0278,7.6138
1.0283,15.5489
1.0288,16.4645
1.0293,11.8866
1.0298,14.3281
1.0303,24.7047
1.0308,30.5034
1.0313,31.7242
1.0318,41.7956
1.0323,57.3605
1.0328,54.3086
1.0333,28.0619
1.0338,6.0879
1.0343,3.0359
1.0348,-3.6783
1.0353,-32.6718
1.0358,-58.9185
1.0363,-51.5939
1.0368,-23.2108
1.0373,-9.1718
1.0378,-13.7498
1.0383,-14.3602
1.0388,-2.4576
1.0393,10.9710
1.0398,23.1788
1.0403,35.3865
1.0408,35.0813
1.0413,9.7502
1.0418,-25.3472
1.0423,-39.9965
1.0428,-29.6199
1.0433,-15.5809
1.0438,-11.6134
1.0443,-11.6134
1.0448,-14.9705
1.0453,-28.0939
1.0458,-46.1004
1.0463,-54.0354
1.0468,-51.8991
1.0473,-52.8146
1.0478,-57.6978
1.0483,-50.9835
1.0488,-29.0095
1.0493,-7.0355
1.0498,1.8152
1.0503,3.0359
1.0508,4.8671
1.0513,5.7827
1.0518,4.5619
1.0523,5.4775
1.0528,10.3606
1.0533,13.7177
1.0538,12.1918
1.0543,10.6658
1.0548,11.5814
1.0553,11.2762
1.0558,7.9190
1.0563,4.5619
1.0568,4.5619
1.0573,5.4775
1.0578,4.5619
1.0583,4.2567
1.0588,6.6983
1.0593,10.6658
1.0598,12.8022
1.0603,13.4125
1.0608,14.9385
1.0613,15.8541
1.0618,14.3281
1.0623,10.3606
1.0628,7.3087
1.0633,7.0035
1.0638,8.8346
1.0643,11.8866
1.0648,14.9385
1.0653,16.1593
1.0658,11.2762
1.0663,-0.0160
1.0668,-11.9186
1.0673,-17.4121
1.0678,-13.7498
1.0683,-5.2043
1.0688,1.8152
1.0693,6.6983
1.0698,9.1398
1.0703,9.7502
1.0708,9.1398
1.0713,9.7502
1.0718,11.5814
1.0723,13.4125
1.0728,12.1918
1.0733,8.8346
1.0738,7.0035
1.0743,10.3606
1.0748,18.2956
1.0753,26.2307
1.0758,31.1138
1.0763,34.1658
1.0768,38.1333
1.0773,39.6593
1.0778,33.5554
1.0783,22.2632
1.0788,17.0749
1.0793,21.3476
1.0798,22.2632
1.0803,5.7827
1.0808,-23.2108
1.0813,-47.0160
1.0818,-54.0354
1.0823,-50.0679
1.0828,-42.7432
1.0833,-33.5874
1.0838,-21.0744
1.0843,-10.0874
1.0848,-4.8991
1.0853,-3.6783
1.0858,-1.8472
1.0863,0.5944
1.0868,1.5100
1.0873,1.2048
1.0878,0.8996
1.0883,0.8996
1.0888,-0.0160
1.0893,-0.9316
1.0898,-0.9316
1.0903,-0.0160
1.0908,0.5944
1.0913,0.2892
1.0918,-0.0160
1.0923,-0.3212
1.0928,-0.0160
1.0933,0.5944
1.0938,0.5944
1.0943,-0.6264
1.0948,-1.8472
1.0953,-0.6264
1.0958,2.1203
1.0963,3.6463
1.0968,1.8152
1.0973,-0.0160
1.0978,0.5944
1.0983,2.7307
1.0988,4.2567
1.0993,5.1723
1.0998,5.7827
1.1003,5.4775
1.1008,3.6463
1.1013,0.5944
1.1018,-1.2368
1.1023,-2.4576
1.1028,-2.1524
1.1033,-0.6264
1.1038,0.8996
1.1043,2.1203
1.1048,1.8152
1.1053,1.8152
1.1058,2.4255
1.1063,2.1203
1.1068,1.5100
1.1073,2.1203
1.1078,4.5619
1.1083,6.0879
1.1088,5.4775
1.1093,5.4775
1.1098,6.0879
1.1103,3.9515
1.1108,-0.6264
1.1113,-2.4576
1.1118,1.2048
1.1123,4.5619
1.1128,0.5944
1.1133,-6.7303
1.1138,-8.2563
1.1143,-3.6783
1.1148,-0.9316
1.1153,-3.6783
1.1158,-7.0355
1.1163,-6.1199
1.1168,-3.3732
1.1173,-2.1524
1.1178,-1.5420
1.1183,0.5944
1.1188,3.3411
1.1193,1.8152
1.1198,-3.0680
1.1203,-6.7303
1.1208,-5.2043
1.1213,-1.2368
1.1218,0.2892
1.1223,-0.9316
1.1228,-2.1524
1.1233,-0.6264
1.1238,3.0359
1.1243,6.0879
1.1248,7.3087
1.1253,7.9190
1.1258,7.3087
1.1263,5.4775
1.1268,2.7307
1.1273,1.5100
1.1278,1.2048
1.1283,0.8996
1.1288,-0.0160
1.1293,0.2892
1.1298,1.5100
1.1303,2.4255
1.1308,2.4255
1.1313,2.4255
1.1318,3.3411
1.1323,3.6463
1.1328,3.0359
1.1333,3.6463
1.1338,5.1723
1.1343,6.0879
1.1348,4.5619
1.1353,2.7307
1.1358,2.4255
1.1363,3.6463
1.1368,4.5619
1.1373,5.1723
1.1378,4.8671
1.1383,2.7307
1.1388,-0.0160
1.1393,-1.2368
1.1398,-0.0160
1.1403,0.5944
1.1408,-0.0160
1.1413,-1.5420
1.1418,-1.5420
1.1423,-0.3212
1.1428,0.2892
1.1433,0.8996
1.1438,1.8152
1.1443,2.1203
1.1448,0.2892
1.1453,-1.8472
1.1458,-2.7628
1.1463,-2.1524
1.1468,-1.5420
1.1473,-2.4576
1.1478,-2.7628
1.1483,-1.8472
1.1488,-0.9316
1.1493,-1.5420
1.1498,-2.4576
1.1503,-1.8472
1.1508,-0.6264
1.1513,-0.0160
1.1518,-0.3212
1.1523,0.2892
1.1528,1.8152
1.1533,2.1203
1.1538,-0.3212
1.1543,-2.4576
1.1548,-0.9316
1.1553,2.1203
1.1558,3.6463
1.1563,2.1203
1.1568,0.2892
1.1573,-0.0160
1.1578,0.8996
1.1583,0.8996
1.1588,-0.0160
1.1593,-0.9316
1.1598,-1.2368
1.1603,-0.3212
1.1608,0.8996
1.1613,1.5100
1.1618,0.2892
1.1623,-1.5420
1.1628,-2.1524
1.1633,-1.5420
1.1638,-1.5420
1.1643,-2.7628
1.1648,-3.9835
1.1653,-3.0680
1.1658,-1.2368
1.1663,-0.0160
1.1668,0.8996
1.1673,1.2048
1.1678,0.5944
1.1683,-0.6264
1.1688,-1.5420
1.1693,-1.2368
1.1698,-0.6264
1.1703,-0.0160
1.1708,1.2048
1.1713,2.7307
1.1718,2.7307
1.1723,0.8996
1.1728,-0.0160
1.1733,0.2892
1.1738,0.8996
1.1743,-0.0160
1.1748,-1.8472
1.1753,-3.0680
1.1758,-4.2887
1.1763,-5.8147
1.1768,-6.4251
1.1773,-4.8991
1.1778,-2.7628
1.1783,-2.4576
1.1788,-3.6783
1.1793,-4.5939
1.1798,-4.5939
1.1803,-3.9835
1.1808,-2.4576
1.1813,-0.0160
1.1818,2.7307
1.1823,2.7307
1.1828,0.8996
1.1833,-0.6264
1.1838,-1.5420
1.1843,-2.4576
1.1848,-2.4576
1.1853,-1.2368
1.1858,0.2892
1.1863,1.2048
1.1868,0.8996
1.1873,-0.0160
1.1878,-0.0160
1.1883,-0.0160
1.1888,0.2892
1.1893,0.8996
1.1898,2.4255
1.1903,4.2567
1.1908,6.3931
1.1913,7.3087
1.1918,6.3931
1.1923,4.5619
1.1928,4.2567
1.1933,4.8671
1.1938,4.8671
1.1943,3.0359
1.1948,0.8996
1.1953,0.2892
1.1958,-0.0160
1.1963,-1.2368
1.1968,-3.3732
1.1973,-4.2887
1.1978,-3.9835
1.1983,-3.6783
1.1988,-4.5939
1.1993,-6.1199
1.1998,-8.2563
1.2003,-10.3926
1.2008,-10.6978
1.2013,-9.1718
1.2018,-7.9511
1.2023,-6.4251
1.2028,-4.5939
1.2033,-2.4576
1.2038,-1.8472
1.2043,-3.6783
1.2048,-6.1199
1.2053,-7.0355
1.2058,-6.7303
1.2063,-5.8147
1.2068,-4.5939
1.2073,-3.0680
1.2078,-1.5420
1.2083,-2.1524
1.2088,-3.6783
1.2093,-4.5939
1.2098,-3.9835
1.2103,-3.3732
1.2108,-3.6783
1.2113,-4.2887
1.2118,-4.2887
1.2123,-3.6783
1.2128,-3.0680
1.2133,-2.4576
1.2138,-2.1524
1.2143,-1.2368
1.2148,-0.9316
1.2153,-1.5420
1.2158,-1.8472
1.2163,-0.9316
1.2168,-0.0160
1.2173,-0.0160
1.2178,-0.9316
1.2183,-0.3212
1.2188,1.8152
1.2193,4.2567
1.2198,4.8671
1.2203,4.5619
1.2208,4.8671
1.2213,5.1723
1.2218,4.2567
1.2223,2.7307
1.2228,2.1203
1.2233,3.0359
1.2238,3.9515
1.2243,3.9515
1.2248,3.6463
1.2253,3.3411
1.2258,2.7307
1.2263,1.5100
1.2268,-0.0160
1.2273,-0.6264
1.2278,-1.2368
1.2283,-0.9316
1.2288,-0.6264
1.2293,-0.3212
1.2298,-0.3212
1.2303,-0.0160
1.2308,1.2048
1.2313,3.3411
1.2318,5.1723
1.2323,5.7827
1.2328,5.4775
1.2333,4.8671
1.2338,4.2567
1.2343,3.3411
1.2348,3.0359
1.2353,3.3411
1.2358,3.3411
1.2363,3.0359
1.2368,2.7307
1.2373,2.7307
1.2378,2.4255
1.2383,1.8152
1.2388,0.8996
1.2393,-0.0160
1.2398,-1.8472
1.2403,-4.2887
1.2408,-6.1199
1.2413,-6.7303
1.2418,-7.0355
1.2423,-7.6459
1.2428,-8.2563
1.2433,-7.6459
1.2438,-6.1199
1.2443,-5.5095
1.2448,-5.5095
1.2453,-5.8147
1.2458,-5.2043
1.2463,-3.3732
1.2468,-1.8472
1.2473,-1.8472
1.2478,-3.9835
1.2483,-7.3407
1.2488,-8.8667
1.2493,-7.3407
1.2498,-4.8991
1.2503,-3.3732
1.2508,-3.6783
1.2513,-4.2887
1.2518,-4.5939
1.2523,-5.8147
1.2528,-7.9511
1.2533,-8.5615
1.2538,-6.1199
1.2543,-2.7628
1.2548,-0.6264
1.2553,-0.0160
1.2558,1.8152
1.2563,2.7307
1.2568,1.5100
1.2573,-0.9316
1.2578,-3.0680
1.2583,-2.7628
1.2588,-1.5420
1.2593,-0.3212
1.2598,1.5100
1.2603,4.8671
1.2608,7.3087
1.2613,6.6983
1.2618,4.2567
1.2623,2.1203
1.2628,-0.0160
1.2633,-2.4576
1.2638,-3.3732
1.2643,-2.1524
1.2648,-0.6264
1.2653,-0.6264
1.2658,-0.9316
1.2663,0.5944
1.2668,4.2567
1.2673,6.6983
1.2678,7.3087
1.2683,6.3931
1.2688,5.7827
1.2693,5.1723
1.2698,5.4775
1.2703,6.0879
1.2708,6.6983
1.2713,6.0879
1.2718,5.1723
1.2723,5.4775
1.2728,6.3931
1.2733,6.6983
1.2738,7.0035
1.2743,8.2242
1.2748,9.4450
1.2753,9.1398
1.2758,7.9190
1.2763,7.6138
1.2768,9.1398
1.2773,10.3606
1.2778,9.7502
1.2783,8.8346
1.2788,8.2242
1.2793,7.6138
1.2798,6.3931
1.2803,5.7827
1.2808,7.0035
1.2813,8.8346
1.2818,9.7502
1.2823,9.4450
1.2828,9.1398
1.2833,8.5294
1.2838,6.6983
1.2843,4.8671
1.2848,3.6463
1.2853,2.4255
1.2858,0.5944
1.2863,-1.5420
1.2868,-3.3732
1.2873,-3.6783
1.2878,-2.4576
1.2883,-2.4576
1.2888,-3.9835
1.2893,-6.1199
1.2898,-6.7303
1.2903,-4.8991
1.2908,-1.8472
1.2913,-0.0160
1.2918,0.8996
1.2923,2.1203
1.2928,4.2567
1.2933,6.3931
1.2938,7.3087
1.2943,6.6983
1.2948,5.7827
1.2953,4.2567
1.2958,3.0359
1.2963,2.7307
1.2968,3.9515
1.2973,4.5619
1.2978,3.9515
1.2983,2.7307
1.2988,2.7307
1.2993,3.6463
1.2998,3.6463
1.3003,1.2048
1.3008,-2.1524
1.3013,-4.5939
1.3018,-6.1199
1.3023,-7.3407
1.3028,-8.5615
1.3033,-8.5615
1.3038,-7.0355
1.3043,-5.8147
1.3048,-6.1199
1.3053,-7.3407
1.3058,-7.0355
1.3063,-5.2043
1.3068,-3.6783
1.3073,-3.0680
1.3078,-2.7628
1.3083,-2.1524
1.3088,-1.8472
1.3093,-2.4576
1.3098,-3.6783
1.3103,-3.9835
1.3108,-4.2887
1.3113,-4.8991
1.3118,-4.8991
1.3123,-3.6783
1.3128,-3.3732
1.3133,-4.8991
1.3138,-7.3407
1.3143,-8.2563
1.3148,-7.6459
1.3153,-7.9511
1.3158,-9.1718
1.3163,-9.1718
1.3168,-8.2563
1.3173,-7.9511
1.3178,-7.3407
1.3183,-4.2887
1.3188,0.8996
1.3193,4.8671
1.3198,4.5619
1.3203,1.8152
1.3208,-0.0160
1.3213,-0.6264
1.3218,-1.2368
1.3223,-3.0680
1.3228,-5.8147
1.3233,-8.5615
1.3238,-9.7822
1.3243,-8.5615
1.3248,-6.4251
1.3253,-6.1199
1.3258,-7.9511
1.3263,-8.8667
1.3268,-7.3407
1.3273,-5.8147
1.3278,-6.1199
1.3283,-7.3407
1.3288,-7.0355
1.3293,-6.4251
1.3298,-7.3407
1.3303,-8.5615
1.3308,-6.4251
1.3313,-2.1524
1.3318,0.5944
1.3323,0.2892
1.3328,-0.3212
1.3333,0.2892
1.3338,1.8152
1.3343,2.1203
1.3348,1.5100
1.3353,1.8152
1.3358,3.0359
1.3363,3.9515
1.3368,2.7307
1.3373,0.5944
1.3378,-1.2368
1.3383,-1.8472
1.3388,-0.6264
1.3393,1.8152
1.3398,4.2567
1.3403,5.1723
1.3408,5.1723
1.3413,6.0879
1.3418,8.5294
1.3423,11.8866
1.3428,14.3281
1.3433,14.9385
1.3438,14.0229
1.3443,11.2762
1.3448,6.6983
1.3453,1.5100
1.3458,-0.6264
1.3463,0.8996
1.3468,6.3931
1.3473,12.8022
1.3478,19.2112
1.3483,23.4840
1.3488,23.1788
1.3493,18.6008
1.3498,14.6333
1.3503,14.9385
1.3508,17.6853
1.3513,18.6008
1.3518,16.7697
1.3523,16.1593
1.3528,17.3801
1.3533,18.9060
1.3538,20.4320
1.3543,24.7047
1.3548,28.6723
1.3553,25.9255
1.3558,14.3281
1.3563,1.8152
1.3568,-4.2887
1.3573,-5.2043
1.3578,-5.5095
1.3583,-6.7303
1.3588,-6.7303
1.3593,-4.8991
1.3598,-3.0680
1.3603,-1.5420
1.3608,0.8996
1.3613,4.8671
1.3618,7.9190
1.3623,7.9190
1.3628,5.1723
1.3633,1.2048
1.3638,-1.5420
1.3643,-2.1524
1.3648,-1.5420
1.3653,-2.1524
1.3658,-4.5939
1.3663,-6.4251
1.3668,-6.1199
1.3673,-3.0680
1.3678,2.1203
1.3683,8.8346
1.3688,14.3281
1.3693,15.8541
1.3698,13.4125
1.3703,10.3606
1.3708,8.2242
1.3713,5.1723
1.3718,0.8996
1.3723,-2.4576
1.3728,-3.0680
1.3733,-1.5420
1.3738,-0.6264
1.3743,-0.3212
1.3748,-0.9316
1.3753,-2.7628
1.3758,-5.5095
1.3763,-7.6459
1.3768,-8.2563
1.3773,-7.9511
1.3778,-8.5615
1.3783,-9.4770
1.3788,-9.7822
1.3793,-9.7822
1.3798,-11.0030
1.3803,-11.9186
1.3808,-11.9186
1.3813,-11.6134
1.3818,-11.9186
1.3823,-12.8342
1.3828,-14.3602
1.3833,-15.5809
1.3838,-15.8861
1.3843,-14.0550
1.3848,-11.0030
1.3853,-11.0030
1.3858,-14.6653
1.3863,-18.9381
1.3868,-21.3796
1.3873,-21.0744
1.3878,-19.5485
1.3883,-18.3277
1.3888,-19.2433
1.3893,-24.1264
1.3898,-29.9251
1.3903,-30.8406
1.3908,-24.1264
1.3913,-13.1394
1.3918,-1.5420
1.3923,9.7502
1.3928,18.6008
1.3933,23.1788
1.3938,25.3151
1.3943,28.6723
1.3948,27.1463
1.3953,11.5814
1.3958,-11.9186
1.3963,-22.2952
1.3968,-9.7822
1.3973,2.7307
1.3978,-11.9186
1.3983,-50.3731
1.3988,-78.7562
1.3993,-74.7886
1.3998,-49.4575
1.4003,-25.0420
1.4008,-9.4770
1.4013,0.5944
1.4018,5.7827
1.4023,2.7307
1.4028,-2.4576
1.4033,0.2892
1.4038,12.1918
1.4043,21.0424
1.4048,14.6333
1.4053,-6.7303
1.4058,-31.7562
1.4062,-48.8471
1.4067,-52.8146
1.4072,-49.7627
1.4077,-50.3731
1.4082,-56.7822
1.4087,-58.0030
1.4092,-43.6588
1.4097,-17.1069
1.4102,9.7502
1.4107,29.5878
1.4112,42.4060
1.4117,49.7307
1.4122,53.0878
1.4127,56.1398
1.4132,56.4450
1.4137,43.3216
1.4142,13.1073
1.4147,-13.7498
1.4152,-11.9186
1.4157,17.0749
1.4162,48.2047
1.4167,62.2436
1.4172,61.9385
1.4177,49.4255
1.4182,19.8216
1.4187,-18.9381
1.4192,-39.0809
1.4197,-24.4316
1.4202,5.1723
1.4207,19.5164
1.4212,8.5294
1.4217,-19.8537
1.4222,-57.6978
1.4227,-90.9639
1.4232,-96.7626
1.4237,-65.0224
1.4242,-18.9381
1.4247,8.5294
1.4252,14.0229
1.4257,16.1593
1.4262,24.3995
1.4267,28.9775
1.4272,25.9255
1.4277,24.0943
1.4282,27.1463
1.4287,25.9255
1.4292,14.9385
1.4297,0.2892
1.4302,-8.5615
1.4307,-10.6978
1.4312,-7.3407
1.4317,1.5100
1.4322,12.4970
1.4327,17.0749
1.4332,13.1073
1.4337,8.8346
1.4342,11.2762
1.4347,16.4645
1.4352,16.4645
1.4357,12.4970
1.4362,13.4125
1.4367,23.1788
1.4372,35.9969
1.4377,41.4904
1.4382,35.9969
1.4387,25.6203
1.4392,20.1268
1.4397,20.1268
1.4402,17.3801
1.4407,6.3931
1.4412,-3.3732
1.4417,-0.0160
1.4422,13.7177
1.4427,20.1268
1.4432,6.0879
1.4437,-21.9900
1.4442,-47.3211
1.4447,-57.6978
1.4452,-51.5939
1.4457,-32.6718
1.4462,-7.3407
1.4467,16.1593
1.4472,31.1138
1.4477,37.2177
1.4482,39.6593
1.4487,45.1528
1.4492,54.0034
1.4497,62.8540
1.4502,64.6852
1.4507,55.8346
1.4512,41.4904
1.4517,34.7761
1.4522,42.4060
1.4527,55.2242
1.4532,54.9190
1.4537,31.1138
1.4542,-9.7822
1.4547,-54.3406
1.4552,-90.3536
1.4557,-109.5808
1.4562,-109.5808
1.4567,-96.7626
1.4572,-88.5224
1.4577,-95.8471
1.4582,-109.2756
1.4587,-106.2237
1.4592,-75.3990
1.4597,-29.6199
1.4602,8.2242
1.4607,26.2307
1.4612,26.8411
1.4617,20.1268
1.4622,13.7177
1.4627,8.8346
1.4632,3.3411
1.4637,-3.9835
1.4642,-10.3926
1.4647,-9.1718
1.4652,0.2892
1.4657,11.2762
1.4662,14.6333
1.4667,10.9710
1.4672,6.0879
1.4677,5.7827
1.4682,10.0554
1.4687,14.6333
1.4692,17.6853
1.4697,19.2112
1.4702,21.6528
1.4707,26.2307
1.4712,30.5034
1.4717,31.4190
1.4722,28.6723
1.4727,20.4320
1.4732,3.6463
1.4737,-17.4121
1.4742,-25.3472
1.4747,-6.7303
1.4752,29.5878
1.4757,57.6657
1.4762,63.1592
1.4767,54.6138
1.4772,47.5943
1.4777,44.5424
1.4782,38.7437
1.4787,28.0619
1.4792,14.6333
1.4797,-0.0160
1.4802,-12.5290
1.4807,-19.2433
1.4812,-16.8017
1.4817,-7.9511
1.4822,1.8152
1.4827,9.4450
1.4832,13.7177
1.4837,14.6333
1.4842,12.8022
1.4847,10.9710
1.4852,10.9710
1.4857,13.1073
1.4862,15.8541
1.4867,16.4645
1.4872,10.6658
1.4877,-0.6264
1.4882,-10.6978
1.4887,-11.9186
1.4892,-4.2887
1.4897,4.5619
1.4902,10.6658
1.4907,13.7177
1.4912,13.7177
1.4917,9.7502
1.4922,2.1203
1.4927,-5.2043
1.4932,-9.1718
1.4937,-7.0355
1.4942,2.7307
1.4947,16.1593
1.4952,25.9255
1.4957,28.9775
1.4962,28.9775
1.4967,29.2826
1.4972,26.2307
1.4977,18.9060
1.4982,11.2762
1.4987,5.4775
1.4992,-3.0680
1.4997,-19.5485
1.5002,-35.7238
1.5007,-38.7757
1.5012,-28.0939
1.5017,-15.2757
1.5022,-11.6134
1.5027,-17.7173
1.5032,-28.0939
1.5037,-36.9445
1.5042,-42.7432
1.5047,-43.6588
1.5052,-39.9965
1.5057,-32.0614
1.5062,-22.2952
1.5067,-14.9705
1.5072,-14.3602
1.5077,-19.8537
1.5082,-25.6523
1.5087,-22.9056
1.5092,-7.6459
1.5097,10.6658
1.5102,14.9385
1.5107,-6.7303
1.5112,-44.5744
1.5117,-69.2951
1.5122,-60.4445
1.5127,-25.9575
1.5132,9.1398
1.5137,32.6398
1.5142,51.2566
1.5147,72.3151
1.5152,90.3215
1.5157,97.6462
1.5162,94.8994
1.5167,86.6592
1.5172,75.3670
1.5177,65.6008
1.5182,66.5164
1.5187,77.5034
1.5192,79.6397
1.5197,52.4774
1.5202,2.7307
1.5207,-41.2173
1.5212,-59.8341
1.5217,-56.1718
1.5222,-40.3017
1.5227,-17.7173
1.5232,-0.3212
1.5237,-5.2043
1.5242,-34.8082
1.5247,-62.5809
1.5252,-63.4965
1.5257,-47.0160
1.5262,-43.3536
1.5267,-60.4445
1.5272,-74.1783
1.5277,-63.8016
1.5282,-40.3017
1.5287,-27.1783
1.5292,-29.0095
1.5297,-29.9251
1.5302,-18.9381
1.5307,-3.3732
1.5312,3.6463
1.5317,1.5100
1.5322,-0.0160
1.5327,3.3411
1.5332,7.0035
1.5337,-3.6783
1.5342,-35.4186
1.5347,-74.4835
1.5352,-97.6782
1.5357,-91.8795
1.5362,-68.3796
1.5367,-51.5939
1.5372,-51.8991
1.5377,-59.5289
1.5382,-56.7822
1.5387,-36.0290
1.5392,-2.4576
1.5397,34.4710
1.5402,68.0423
1.5407,91.2371
1.5412,99.1722
1.5417,91.5423
1.5422,72.6203
1.5427,46.0683
1.5432,18.6008
1.5437,-0.0160
1.5442,-5.2043
1.5447,-1.5420
1.5452,1.2048
1.5457,4.8671
1.5462,17.9905
1.5467,38.1333
1.5472,47.8995
1.5477,39.9645
1.5482,30.8086
1.5487,41.7956
1.5492,67.1268
1.5497,79.3345
1.5502,61.9385
1.5507,25.9255
1.5512,-1.8472
1.5517,-5.2043
1.5522,10.6658
1.5527,27.7567
1.5532,30.1982
1.5537,22.2632
1.5542,15.5489
1.5547,11.5814
1.5552,1.2048
1.5557,-13.1394
1.5562,-15.8861
1.5567,-2.4576
1.5572,7.3087
1.5577,-3.6783
1.5582,-24.1264
1.5587,-29.3147
1.5592,-17.1069
1.5597,-7.3407
1.5602,-13.1394
1.5607,-29.0095
1.5612,-46.4056
1.5617,-62.8861
1.5622,-73.2627
1.5627,-69.6003
1.5632,-54.0354
1.5637,-39.6913
1.5642,-33.8926
1.5647,-32.9770
1.5652,-29.9251
1.5657,-23.2108
1.5662,-15.5809
1.5667,-8.2563
1.5672,-4.5939
1.5677,-6.1199
1.5682,-8.8667
1.5687,-7.6459
1.5692,-3.0680
1.5697,-0.6264
1.5702,-1.8472
1.5707,-2.7628
1.5712,-0.0160
1.5717,4.2567
1.5722,5.7827
1.5727,4.5619
1.5732,2.1203
1.5737,0.5944
1.5742,-0.6264
1.5747,-3.3732
1.5752,-6.1199
1.5757,-6.4251
1.5762,-3.6783
1.5767,-3.3732
1.5772,-11.3082
1.5777,-25.3472
1.5782,-35.1134
1.5787,-35.1134
1.5792,-31.4510
1.5797,-31.4510
1.5802,-36.6393
1.5807,-42.7432
1.5812,-47.3211
1.5817,-49.7627
1.5822,-49.7627
1.5827,-47.0160
1.5832,-42.1328
1.5837,-34.5030
1.5842,-23.2108
1.5847,-11.9186
1.5852,-3.3732
1.5857,4.2567
1.5862,16.4645
1.5867,31.7242
1.5872,44.5424
1.5877,52.1722
1.5882,55.5294
1.5887,53.0878
1.5892,40.8800
1.5897,20.4320
1.5902,2.1203
1.5907,-5.8147
1.5912,-6.4251
1.5917,-3.6783
1.5922,1.2048
1.5927,5.1723
1.5932,-0.9316
1.5937,-21.0744
1.5942,-42.4380
1.5947,-47.3211
1.5952,-33.2822
1.5957,-15.8861
1.5962,-8.5615
1.5967,-12.2238
1.5972,-18.3277
1.5977,-20.7692
1.5982,-16.1913
1.5987,-2.4576
1.5992,17.0749
1.5997,33.5554
1.6002,40.2696
1.6007,39.0489
1.6012,34.7761
1.6017,30.1982
1.6022,25.9255
1.6027,23.4840
1.6032,22.8736
1.6037,21.3476
1.6042,17.3801
1.6047,14.9385
1.6052,15.8541
1.6057,17.6853
1.6062,18.9060
1.6067,21.9580
1.6072,28.9775
1.6077,34.4710
1.6082,35.3865
1.6087,36.3021
1.6092,42.1008
1.6097,48.2047
1.6102,47.8995
1.6107,44.5424
1.6112,41.7956
1.6117,36.3021
1.6122,26.2307
1.6127,21.0424
1.6132,27.7567
1.6137,34.1658
1.6142,23.7891
1.6147,4.5619
1.6152,-0.0160
1.6157,15.5489
1.6162,33.2502
1.6167,39.6593
1.6172,41.1852
1.6177,43.0164
1.6182,32.9450
1.6187,2.7307
1.6192,-34.5030
1.6197,-57.0874
1.6202,-57.0874
1.6207,-40.3017
1.6212,-13.7498
1.6217,10.9710
1.6222,18.6008
1.6227,3.6463
1.6232,-17.1069
1.6237,-26.2627
1.6242,-24.4316
1.6247,-24.7368
1.6252,-30.2303
1.6257,-32.9770
1.6262,-29.9251
1.6267,-27.1783
1.6272,-26.2627
1.6277,-21.0744
1.6282,-8.5615
1.6287,6.3931
1.6292,20.1268
1.6297,31.1138
1.6302,35.9969
1.6307,29.2826
1.6312,15.2437
1.6317,6.0879
1.6322,8.5294
1.6327,18.6008
1.6332,34.7761
1.6337,59.4969
1.6342,83.9124
1.6347,87.8800
1.6352,63.1592
1.6357,30.5034
1.6362,16.7697
1.6367,25.9255
1.6372,40.2696
1.6377,43.9320
1.6382,30.8086
1.6387,-1.8472
1.6392,-47.6263
1.6397,-82.1133
1.6402,-79.0614
1.6407,-40.3017
1.6412,1.5100
1.6417,20.7372
1.6422,16.7697
1.6427,7.3087
1.6432,5.4775
1.6437,12.8022
1.6442,22.2632
1.6447,21.9580
1.6452,10.0554
1.6457,-2.4576
1.6462,-3.6783
1.6467,4.8671
1.6472,15.8541
1.6477,27.4515
1.6482,36.6073
1.6487,34.1658
1.6492,20.4320
1.6497,16.1593
1.6502,36.3021
1.6507,63.1592
1.6512,65.9060
1.6517,40.8800
1.6522,9.7502
1.6527,-11.3082
1.6532,-20.7692
1.6537,-15.2757
1.6542,5.1723
1.6547,26.8411
1.6552,34.1658
1.6557,34.7761
1.6562,40.5748
1.6567,45.1528
1.6572,39.3541
1.6577,33.2502
1.6582,36.6073
1.6587,29.2826
1.6592,-5.5095
1.6597,-41.2173
1.6602,-36.0290
1.6607,2.1203
1.6612,26.5359
1.6617,15.8541
1.6622,-12.2238
1.6627,-54.6458
1.6632,-122.7042
1.6637,-192.5937
1.6642,-206.6326
1.6647,-151.6976
1.6652,-82.1133
1.6657,-49.1523
1.6662,-45.1848
1.6667,-38.4705
1.6672,-25.3472
1.6677,-16.4965
1.6682,-7.6459
1.6687,6.0879
1.6692,15.2437
1.6697,12.4970
1.6702,7.3087
1.6707,2.4255
1.6712,-17.4121
1.6717,-53.1198
1.6722,-72.3471
1.6727,-52.8146
1.6732,-18.0225
1.6737,-7.9511
1.6742,-23.8212
1.6747,-37.8601
1.6752,-37.5549
1.6757,-36.6393
1.6762,-44.8796
1.6767,-50.6783
1.6772,-39.9965
1.6777,-13.7498
1.6782,15.2437
1.6787,39.3541
1.6792,59.1917
1.6797,79.9449
1.6802,101.9189
1.6807,112.2955
1.6812,99.7826
1.6817,69.8735
1.6822,41.7956
1.6827,31.1138
1.6832,36.9125
1.6837,50.6463
1.6842,57.3605
1.6847,35.9969
1.6852,-16.8017
1.6857,-70.5159
1.6862,-84.2497
1.6867,-61.3601
1.6872,-50.3731
1.6877,-82.1133
1.6882,-129.1132
1.6887,-145.8989
1.6892,-125.7561
1.6897,-99.2042
1.6902,-89.1328
1.6907,-94.6263
1.6912,-106.8341
1.6917,-115.0743
1.6922,-102.8665
1.6927,-61.3601
1.6932,-9.4770
1.6937,20.4320
1.6942,19.2112
1.6947,7.9190
1.6952,9.7502
1.6957,24.3995
1.6962,37.5229
1.6967,39.6593
1.6972,31.7242
1.6977,22.8736
1.6982,21.6528
1.6987,25.6203
1.6992,23.4840
1.6997,9.4450
1.7002,-3.3732
1.7007,-0.6264
1.7012,11.5814
1.7017,13.7177
1.7022,1.5100
1.7027,-3.9835
1.7032,11.2762
1.7037,33.5554
1.7042,35.3865
1.7047,12.1918
1.7052,-15.2757
1.7057,-28.0939
1.7062,-25.6523
1.7067,-13.4446
1.7072,4.8671
1.7077,25.6203
1.7082,39.0489
1.7087,40.8800
1.7092,39.0489
1.7097,43.0164
1.7102,48.2047
1.7107,44.2372
1.7112,31.7242
1.7117,23.4840
1.7122,25.3151
1.7127,29.2826
1.7132,25.6203
1.7137,20.1268
1.7142,24.0943
1.7147,34.7761
1.7152,32.0294
1.7157,0.8996
1.7162,-49.1523
1.7167,-89.1328
1.7172,-98.2886
1.7177,-83.0289
1.7182,-62.2757
1.7187,-43.0484
1.7192,-15.5809
1.7197,28.6723
1.7202,81.7761
1.7207,124.8085
1.7212,143.7306
1.7217,140.0682
1.7222,126.6397
1.7227,116.8734
1.7232,115.3475
1.7237,118.3994
1.7242,120.5358
1.7247,122.6721
1.7252,123.2825
1.7257,113.2111
1.7262,89.4059
1.7267,66.5164
1.7272,63.4644
1.7277,75.9774
1.7282,76.8930
1.7287,49.4255
1.7292,4.2567
1.7297,-36.6393
1.7302,-64.4120
1.7307,-78.7562
1.7312,-77.2302
1.7317,-63.4965
1.7322,-52.8146
1.7327,-54.0354
1.7332,-58.0030
1.7337,-48.8471
1.7342,-31.1458
1.7347,-26.2627
1.7352,-43.6588
1.7357,-73.5679
1.7362,-100.7302
1.7367,-116.9055
1.7372,-118.1263
1.7377,-101.6458
1.7382,-75.0938
1.7387,-53.4250
1.7392,-44.8796
1.7397,-44.2692
1.7402,-42.7432
1.7407,-38.7757
1.7412,-34.8082
1.7417,-32.0614
1.7422,-28.3991
1.7427,-21.3796
1.7432,-7.9511
1.7437,9.1398
1.7442,23.4840
1.7447,27.1463
1.7452,21.0424
1.7457,12.8022
1.7462,10.0554
1.7467,13.1073
1.7472,19.8216
1.7477,25.0099
1.7482,21.0424
1.7487,3.0359
1.7492,-21.6848
1.7497,-35.1134
1.7502,-25.6523
1.7507,-4.2887
1.7512,0.5944
1.7517,-23.8212
1.7522,-59.2237
1.7527,-68.3796
1.7532,-38.7757
1.7537,3.0359
1.7542,25.3151
1.7547,27.7567
1.7552,32.0294
1.7557,46.0683
1.7562,54.9190
1.7567,49.7307
1.7572,39.6593
1.7577,32.0294
1.7582,22.2632
1.7587,7.9190
1.7592,-7.0355
1.7597,-29.6199
1.7602,-75.3990
1.7607,-133.6912
1.7612,-162.6846
1.7617,-138.2691
1.7622,-88.8276
1.7627,-63.1913
1.7632,-69.6003
1.7637,-75.7042
1.7642,-58.3081
1.7647,-28.7043
1.7652,-6.7303
1.7657,3.9515
1.7662,12.4970
1.7667,21.3476
1.7672,25.9255
1.7677,24.7047
1.7682,22.5684
1.7687,27.4515
1.7692,38.1333
1.7697,40.8800
1.7702,23.4840
1.7707,-7.3407
1.7712,-28.7043
1.7717,-25.3472
1.7722,-6.4251
1.7727,7.9190
1.7732,10.9710
1.7737,9.4450
1.7742,12.4970
1.7747,19.2112
1.7752,22.8736
1.7757,22.2632
1.7762,21.9580
1.7767,25.6203
1.7772,29.2826
1.7777,27.4515
1.7782,24.0943
1.7787,27.7567
1.7792,35.6917
1.7797,36.6073
1.7802,28.3671
1.7807,24.0943
1.7812,30.1982
1.7817,34.1658
1.7822,24.3995
1.7827,11.8866
1.7832,13.1073
1.7837,24.3995
1.7842,27.1463
1.7847,17.3801
1.7852,8.5294
1.7857,10.3606
1.7862,17.9905
1.7867,22.2632
1.7872,18.9060
1.7877,7.9190
1.7882,-7.6459
1.7887,-17.7173
1.7892,-11.6134
1.7897,5.7827
1.7902,19.2112
1.7907,18.6008
1.7912,8.8346
1.7917,3.6463
1.7922,9.7502
1.7927,21.6528
1.7932,25.6203
1.7937,14.3281
1.7942,-1.2368
1.7947,-4.8991
1.7952,5.7827
1.7957,16.1593
1.7962,14.0229
1.7967,3.0359
1.7972,-9.7822
1.7977,-24.1264
1.7982,-36.6393
1.7987,-36.6393
1.7992,-21.3796
1.7997,-3.3732
1.8002,3.6463
1.8007,2.7307
1.8012,3.6463
1.8017,7.3087
1.8022,9.7502
1.8027,13.1073
1.8032,17.9905
1.8037,18.2956
1.8042,11.2762
1.8047,7.6138
1.8052,17.3801
1.8057,32.3346
1.8062,37.5229
1.8067,32.9450
1.8072,28.6723
1.8077,26.2307
1.8082,17.3801
1.8087,3.0359
1.8092,-5.8147
1.8097,-7.6459
1.8102,-10.6978
1.8107,-14.9705
1.8112,-11.6134
1.8117,3.0359
1.8122,21.3476
1.8127,37.5229
1.8132,53.0878
1.8137,66.2112
1.8142,69.5683
1.8147,64.6852
1.8152,63.1592
1.8157,67.4319
1.8162,66.5164
1.8167,49.1203
1.8172,13.7177
1.8177,-34.8082
1.8182,-79.9769
1.8187,-91.2691
1.8192,-54.6458
1.8197,-6.4251
1.8202,-4.8991
1.8207,-56.4770
1.8212,-98.8990
1.8217,-79.3666
1.8222,-17.4121
1.8227,29.8930
1.8232,39.6593
1.8237,29.5878
1.8242,15.8541
1.8247,-0.9316
1.8252,-14.3602
1.8257,-15.8861
1.8262,-13.1394
1.8267,-21.6848
1.8272,-36.0290
1.8277,-33.2822
1.8282,-11.3082
1.8287,5.4775
1.8292,-1.5420
1.8297,-26.2627
1.8302,-47.3211
1.8307,-52.2043
1.8312,-39.6913
1.8317,-15.8861
1.8322,3.9515
1.8327,8.8346
1.8332,2.1203
1.8337,-0.3212
1.8342,6.3931
1.8347,15.5489
1.8352,20.1268
1.8357,21.6528
1.8362,22.8736
1.8367,22.2632
1.8372,22.2632
1.8377,27.1463
1.8382,35.3865
1.8387,34.7761
1.8392,17.9905
1.8397,-8.2563
1.8402,-31.4510
1.8407,-43.9640
1.8412,-44.8796
1.8417,-35.1134
1.8422,-18.0225
1.8427,-0.0160
1.8432,12.1918
1.8437,18.6008
1.8442,21.9580
1.8447,19.5164
1.8452,8.2242
1.8457,-8.2563
1.8462,-21.6848
1.8467,-27.4835
1.8472,-32.6718
1.8477,-40.6069
1.8482,-43.9640
1.8487,-34.5030
1.8492,-16.1913
1.8497,-0.0160
1.8502,10.0554
1.8507,17.3801
1.8512,21.6528
1.8517,17.6853
1.8522,8.5294
1.8527,3.6463
1.8532,8.8346
1.8537,19.8216
1.8542,32.6398
1.8547,45.7631
1.8552,54.3086
1.8557,49.4255
1.8562,30.8086
1.8567,8.5294
1.8572,-7.3407
1.8577,-15.2757
1.8582,-16.8017
1.8587,-15.2757
1.8592,-13.7498
1.8597,-15.5809
1.8602,-16.4965
1.8607,-12.8342
1.8612,-5.8147
1.8617,-0.3212
1.8622,5.7827
1.8627,17.3801
1.8632,29.5878
1.8637,36.3021
1.8642,39.6593
1.8647,44.8476
1.8652,48.8151
1.8657,46.3735
1.8662,44.5424
1.8667,49.7307
1.8672,48.5099
1.8677,21.3476
1.8682,-24.4316
1.8687,-59.2237
1.8692,-70.2107
1.8697,-72.9575
1.8702,-81.1977
1.8707,-86.6912
1.8712,-80.8925
1.8717,-72.3471
1.8722,-68.3796
1.8727,-60.4445
1.8732,-42.1328
1.8737,-26.2627
1.8742,-24.4316
1.8747,-27.1783
1.8752,-21.0744
1.8757,-11.0030
1.8762,-8.5615
1.8767,-10.3926
1.8772,-7.0355
1.8777,-4.2887
1.8782,-14.0550
1.8787,-30.2303
1.8792,-33.8926
1.8797,-21.6848
1.8802,-10.0874
1.8807,-8.5615
1.8812,-9.4770
1.8817,-4.5939
1.8822,2.4255
1.8827,10.6658
1.8832,23.4840
1.8837,38.7437
1.8842,43.3216
1.8847,32.6398
1.8852,21.0424
1.8857,23.4840
1.8862,34.7761
1.8867,42.1008
1.8872,42.1008
1.8877,35.0813
1.8882,17.0749
1.8887,-11.3082
1.8892,-29.3147
1.8897,-16.8017
1.8902,17.0749
1.8907,44.5424
1.8912,53.3930
1.8917,52.1722
1.8922,46.6787
1.8927,32.0294
1.8932,15.8541
1.8937,20.1268
1.8942,48.8151
1.8947,81.1657
1.8952,97.0358
1.8957,97.9514
1.8962,88.7956
1.8967,66.2112
1.8972,39.0489
1.8977,26.8411
1.8982,23.1788
1.8987,-15.5809
1.8992,-112.0224
1.8997,-217.0092
1.9002,-253.9378
1.9007,-204.4963
1.9012,-120.5678
1.9017,-56.1718
1.9022,-24.1264
1.9027,-17.1069
1.9032,-29.0095
1.9037,-47.6263
1.9042,-51.5939
1.9047,-36.6393
1.9052,-20.4640
1.9057,-13.7498
1.9062,-2.1524
1.9067,24.7047
1.9072,50.3411
1.9077,46.9839
1.9082,15.5489
1.9087,-15.5809
1.9092,-23.2108
1.9097,-11.0030
1.9102,0.5944
1.9107,1.2048
1.9112,2.1203
1.9117,19.5164
1.9122,49.1203
1.9127,59.4969
1.9132,26.2307
1.9137,-31.4510
1.9142,-66.8536
1.9147,-57.3926
1.9152,-28.3991
1.9157,-14.6653
1.9162,-15.8861
1.9167,-5.5095
1.9172,24.7047
1.9177,55.2242
1.9182,66.8216
1.9187,68.3475
1.9192,76.8930
1.9197,92.1527
1.9202,94.8994
1.9207,74.7566
1.9212,44.2372
1.9217,21.3476
1.9222,8.5294
1.9227,-7.0355
1.9232,-34.5030
1.9237,-65.3276
1.9242,-87.6068
1.9247,-97.6782
1.9252,-94.0159
1.9257,-72.3471
1.9262,-31.7562
1.9267,11.2762
1.9272,33.5554
1.9277,27.4515
1.9282,9.4450
1.9287,-0.0160
1.9292,5.4775
1.9297,20.7372
1.9302,38.7437
1.9307,50.3411
1.9312,40.2696
1.9317,1.5100
1.9322,-50.3731
1.9327,-84.5549
1.9332,-84.2497
1.9337,-60.4445
1.9342,-32.6718
1.9347,-6.7303
1.9352,18.6008
1.9357,36.6073
1.9362,34.4710
1.9367,18.6008
1.9372,11.8866
1.9377,21.6528
1.9382,24.3995
1.9387,-3.0680
1.9392,-46.4056
1.9397,-63.8016
1.9402,-39.0809
1.9407,0.8996
1.9412,19.8216
1.9417,8.8346
1.9422,-14.0550
1.9427,-32.0614
1.9432,-41.2173
1.9437,-40.3017
1.9442,-29.0095
1.9447,-9.7822
1.9452,8.5294
1.9457,19.8216
1.9462,22.2632
1.9467,20.1268
1.9472,19.8216
1.9477,24.7047
1.9482,32.0294
1.9487,35.9969
1.9492,35.3865
1.9497,36.9125
1.9502,42.4060
1.9507,42.4060
1.9512,31.4190
1.9517,19.5164
1.9522,22.8736
1.9527,37.8281
1.9532,42.4060
1.9537,26.5359
1.9542,7.0035
1.9547,2.7307
1.9552,12.4970
1.9557,21.3476
1.9562,24.3995
1.9567,27.1463
1.9572,29.5878
1.9577,25.6203
1.9582,19.8216
1.9587,24.0943
1.9592,38.1333
1.9597,46.3735
1.9602,41.1852
1.9607,35.3865
1.9612,38.1333
1.9617,37.8281
1.9622,20.4320
1.9627,-2.1524
1.9632,-4.8991
1.9637,15.2437
1.9642,28.0619
1.9647,7.0035
1.9652,-34.8082
1.9657,-61.3601
1.9662,-54.9510
1.9667,-33.2822
1.9672,-20.7692
1.9677,-22.6004
1.9682,-29.3147
1.9686,-34.5030
1.9691,-35.7238
1.9696,-27.1783
1.9701,-5.8147
1.9706,15.5489
1.9711,23.1788
1.9716,21.9580
1.9721,29.5878
1.9726,46.9839
1.9731,54.9190
1.9736,45.1528
1.9741,30.8086
1.9746,21.3476
1.9751,7.3087
1.9756,-20.1588
1.9761,-49.4575
1.9766,-64.1068
1.9771,-62.5809
1.9776,-50.3731
1.9781,-23.5160
1.9786,14.3281
1.9791,39.6593
1.9796,24.7047
1.9801,-28.3991
1.9806,-88.5224
1.9811,-121.4834
1.9816,-112.6328
1.9821,-68.6848
1.9826,-14.3602
1.9831,22.5684
1.9836,34.4710
1.9841,33.8606
1.9846,31.4190
1.9851,22.5684
1.9856,5.4775
1.9861,-1.5420
1.9866,12.4970
1.9871,34.7761
1.9876,45.1528
1.9881,49.1203
1.9886,64.6852
1.9891,87.5748
1.9896,97.9514
1.9901,93.3735
1.9906,91.8475
1.9911,99.4774
1.9916,99.7826
1.9921,81.7761
1.9926,47.8995
1.9931,-3.6783
1.9936,-77.8406
1.9941,-151.3924
1.9946,-174.2820
1.9951,-130.9444
1.9956,-72.0419
1.9961,-59.2237
1.9966,-87.3016
1.9971,-95.8471
1.9976,-54.0354
1.9981,3.3411
1.9986,32.9450
1.9991,32.9450
1.9996,28.3671
2.0001,29.8930
2.0006,28.9775
2.0011,21.6528
2.0016,10.6658
2.0021,-2.4576
2.0026,-13.7498
2.0031,-12.2238
2.0036,3.3411
2.0041,13.4125
2.0046,-3.0680
2.0051,-39.0809
2.0056,-66.8536
2.0061,-69.6003
2.0066,-52.5095
2.0071,-28.0939
2.0076,-8.5615
2.0081,-3.0680
2.0086,-9.4770
2.0091,-11.6134
2.0096,-0.3212
2.0101,10.3606
2.0106,2.4255
2.0111,-15.5809
2.0116,-18.3277
2.0121,1.2048
2.0126,20.7372
2.0131,19.2112
2.0136,-0.0160
2.0141,-19.8537
2.0146,-32.0614
2.0151,-34.1978
2.0156,-24.4316
2.0161,-6.7303
2.0166,9.1398
2.0171,16.7697
2.0176,20.1268
2.0181,24.7047
2.0186,28.9775
2.0191,28.3671
2.0196,24.7047
2.0201,22.5684
2.0206,20.7372
2.0211,14.6333
2.0216,5.1723
2.0221,-0.6264
2.0226,-0.3212
2.0231,0.2892
2.0236,-2.7628
2.0241,-8.2563
2.0246,-9.1718
2.0251,-4.8991
2.0256,-0.3212
2.0261,0.5944
2.0266,-0.3212
2.0271,-1.8472
2.0276,-2.4576
2.0281,-0.3212
2.0286,5.4775
2.0291,11.8866
2.0296,12.8022
2.0301,7.6138
2.0306,4.2567
2.0311,7.9190
2.0316,11.8866
2.0321,4.5619
2.0326,-11.9186
2.0331,-21.6848
2.0336,-12.2238
2.0341,8.2242
2.0346,21.3476
2.0351,20.7372
2.0356,15.8541
2.0361,15.2437
2.0366,11.5814
2.0371,-0.9316
2.0376,-10.0874
2.0381,3.0359
2.0386,31.7242
2.0391,47.5943
2.0396,39.0489
2.0401,26.8411
2.0406,32.0294
2.0411,45.4580
2.0416,47.2891
2.0421,37.8281
2.0426,31.4190
2.0431,23.4840
2.0436,-0.0160
2.0441,-32.0614
2.0446,-39.0809
2.0451,-5.5095
2.0456,43.3216
2.0461,70.1787
2.0466,63.1592
2.0471,37.2177
2.0476,7.9190
2.0481,-22.6004
2.0486,-60.4445
2.0491,-104.0873
2.0496,-144.3730
2.0501,-166.6522
2.0506,-162.6846
2.0511,-138.5743
2.0516,-111.4120
2.0521,-94.9315
2.0526,-88.8276
2.0531,-81.5029
2.0536,-63.8016
2.0541,-36.9445
2.0546,-11.6134
2.0551,3.9515
2.0556,12.1918
2.0561,18.2956
2.0566,23.4840
2.0571,23.7891
2.0576,20.1268
2.0581,21.3476
2.0586,31.1138
2.0591,39.6593
2.0596,30.8086
2.0601,0.8996
2.0606,-34.1978
2.0611,-53.4250
2.0616,-48.2367
2.0621,-27.1783
2.0626,-3.9835
2.0631,14.0229
2.0636,25.9255
2.0641,25.0099
2.0646,7.9190
2.0651,-11.9186
2.0656,-9.1718
2.0661,24.3995
2.0666,62.8540
2.0671,74.7566
2.0676,63.4644
2.0681,61.9385
2.0686,83.3021
2.0691,103.1397
2.0696,97.9514
2.0701,77.8086
2.0706,63.4644
2.0711,49.1203
2.0716,11.2762
2.0721,-47.9315
2.0726,-96.7626
2.0731,-109.2756
2.0736,-90.6588
2.0741,-63.1913
2.0746,-41.2173
2.0751,-26.8731
2.0756,-18.9381
2.0761,-12.5290
2.0766,-2.4576
2.0771,10.3606
2.0776,19.8216
2.0781,20.7372
2.0786,17.6853
2.0791,20.1268
2.0796,31.7242
2.0801,47.2891
2.0806,52.1722
2.0811,32.9450
2.0816,-6.4251
2.0821,-41.8276
2.0826,-49.4575
2.0831,-29.3147
2.0836,-1.2368
2.0841,16.1593
2.0846,21.6528
2.0851,20.4320
2.0856,17.6853
2.0861,17.3801
2.0866,19.2112
2.0871,16.1593
2.0876,3.0359
2.0881,-12.5290
2.0886,-20.1588
2.0891,-15.5809
2.0896,-6.1199
2.0901,0.8996
2.0906,5.4775
2.0911,8.8346
2.0916,11.2762
2.0921,12.8022
2.0926,13.7177
2.0931,14.6333
2.0936,17.3801
2.0941,21.6528
2.0946,24.7047
2.0951,25.6203
2.0956,29.8930
2.0961,40.5748
2.0966,50.9515
2.0971,55.2242
2.0976,60.1073
2.0981,75.0618
2.0986,94.2891
2.0991,104.3605
2.0996,105.2761
2.1001,103.4449
2.1006,86.9644
2.1011,39.0489
2.1016,-25.3472
2.1021,-65.3276
2.1026,-67.1588
2.1031,-66.5484
2.1036,-97.3730
2.1041,-139.4899
2.1046,-147.4249
2.1051,-111.1068
2.1056,-65.6328
2.1061,-44.2692
2.1066,-46.1004
2.1071,-50.9835
2.1076,-45.4900
2.1081,-30.2303
2.1086,-12.5290
2.1091,-0.3212
2.1096,4.8671
2.1101,6.6983
2.1106,6.6983
2.1111,4.8671
2.1116,3.0359
2.1121,5.4775
2.1126,11.8866
2.1131,14.0229
2.1136,5.4775
2.1141,-8.2563
2.1146,-16.8017
2.1151,-15.2757
2.1156,-6.7303
2.1161,0.8996
2.1166,0.8996
2.1171,-10.0874
2.1176,-24.1264
2.1181,-24.4316
2.1186,-4.5939
2.1191,22.2632
2.1196,37.2177
2.1201,35.0813
2.1206,26.5359
2.1211,21.6528
2.1216,18.2956
2.1221,12.1918
2.1226,4.8671
2.1231,1.2048
2.1236,1.8152
2.1241,2.1203
2.1246,1.8152
2.1251,1.5100
2.1256,2.7307
2.1261,5.1723
2.1266,10.6658
2.1271,18.6008
2.1276,25.3151
2.1281,26.2307
2.1286,21.3476
2.1291,13.4125
2.1296,5.7827
2.1301,1.2048
2.1306,1.5100
2.1311,5.4775
2.1316,7.6138
2.1321,5.1723
2.1326,1.2048
2.1331,0.8996
2.1336,4.5619
2.1341,10.3606
2.1346,17.3801
2.1351,22.8736
2.1356,25.3151
2.1361,24.0943
2.1366,21.6528
2.1371,19.2112
2.1376,14.3281
2.1381,9.1398
2.1386,6.0879
2.1391,4.2567
2.1396,-1.8472
2.1401,-11.0030
2.1406,-14.6653
2.1411,-9.7822
2.1416,-2.1524
2.1421,3.3411
2.1426,11.5814
2.1431,23.7891
2.1436,34.4710
2.1441,40.8800
2.1446,44.5424
2.1451,47.2891
2.1456,47.8995
2.1461,49.7307
2.1466,50.3411
2.1471,32.6398
2.1476,-17.1069
2.1481,-78.1458
2.1486,-103.7821
2.1491,-80.2821
2.1496,-44.2692
2.1501,-35.4186
2.1506,-47.0160
2.1511,-49.7627
2.1516,-38.4705
2.1521,-30.2303
2.1526,-29.9251
2.1531,-25.6523
2.1536,-14.9705
2.1541,-7.9511
2.1546,-8.2563
2.1551,-6.7303
2.1556,-2.7628
2.1561,-3.9835
2.1566,-8.8667
2.1571,-8.2563
2.1576,-1.8472
2.1581,-0.0160
2.1586,-2.7628
2.1591,-1.8472
2.1596,3.0359
2.1601,-0.0160
2.1606,-13.7498
2.1611,-24.4316
2.1616,-22.9056
2.1621,-16.4965
2.1626,-16.1913
2.1631,-19.2433
2.1636,-19.2433
2.1641,-13.4446
2.1646,-4.2887
2.1651,5.4775
2.1656,12.8022
2.1661,13.7177
2.1666,12.1918
2.1671,14.0229
2.1676,14.9385
2.1681,8.2242
2.1686,-1.2368
2.1691,-2.4576
2.1696,2.4255
2.1701,-2.1524
2.1706,-22.6004
2.1711,-43.6588
2.1716,-46.7108
2.1721,-31.7562
2.1726,-8.8667
2.1731,11.8866
2.1736,24.3995
2.1741,24.3995
2.1746,16.4645
2.1751,8.8346
2.1756,2.7307
2.1761,-7.0355
2.1766,-16.4965
2.1771,-13.7498
2.1776,3.0359
2.1781,19.8216
2.1786,25.6203
2.1791,24.3995
2.1796,25.9255
2.1801,30.8086
2.1806,34.7761
2.1811,34.1658
2.1816,25.3151
2.1821,8.2242
2.1826,-7.0355
2.1831,-7.6459
2.1836,7.3087
2.1841,23.1788
2.1846,28.6723
2.1851,25.0099
2.1856,14.3281
2.1861,-3.0680
2.1866,-21.6848
2.1871,-29.9251
2.1876,-27.1783
2.1881,-25.6523
2.1886,-27.4835
2.1891,-21.0744
2.1896,-2.1524
2.1901,12.1918
2.1906,8.2242
2.1911,-7.6459
2.1916,-20.4640
2.1921,-28.7043
2.1926,-39.9965
2.1931,-50.9835
2.1936,-49.1523
2.1941,-31.4510
2.1946,-9.1718
2.1951,6.3931
2.1956,13.1073
2.1961,12.8022
2.1966,7.9190
2.1971,-1.5420
2.1976,-16.4965
2.1981,-33.5874
2.1986,-43.0484
2.1991,-36.9445
2.1996,-18.6329
2.2001,-3.3732
2.2006,-0.0160
2.2011,-2.7628
2.2016,-1.2368
2.2021,3.6463
2.2026,5.4775
2.2031,3.3411
2.2036,1.5100
2.2041,1.8152
2.2046,2.1203
2.2051,0.8996
2.2056,0.2892
2.2061,0.5944
2.2066,-0.6264
2.2071,-4.5939
2.2076,-7.9511
2.2081,-8.8667
2.2086,-7.6459
2.2091,-4.2887
2.2096,3.3411
2.2101,16.1593
2.2106,27.7567
2.2111,32.6398
2.2116,32.3346
2.2121,34.1658
2.2126,37.8281
2.2131,37.8281
2.2136,32.3346
2.2141,27.4515
2.2146,26.2307
2.2151,22.5684
2.2156,11.5814
2.2161,0.2892
2.2166,-0.9316
2.2171,7.0035
2.2176,14.9385
2.2181,16.1593
2.2186,12.8022
2.2191,6.6983
2.2196,-0.9316
2.2201,-7.9511
2.2206,-9.7822
2.2211,-5.8147
2.2216,0.8996
2.2221,8.2242
2.2226,12.4970
2.2231,10.6658
2.2236,4.8671
2.2241,1.5100
2.2246,0.2892
2.2251,-5.5095
2.2256,-19.5485
2.2261,-31.1458
2.2266,-30.2303
2.2271,-16.4965
2.2276,3.3411
2.2281,22.8736
2.2286,33.5554
2.2291,28.6723
2.2296,16.4645
2.2301,11.2762
2.2306,14.6333
2.2311,13.4125
2.2316,7.6138
2.2321,13.7177
2.2326,36.3021
2.2331,57.6657
2.2336,64.0748
2.2341,62.8540
2.2346,57.3605
2.2351,33.8606
2.2356,-7.3407
2.2361,-36.3341
2.2366,-34.8082
2.2371,-31.1458
2.2376,-57.3926
2.2381,-91.8795
2.2386,-85.1653
2.2391,-36.3341
2.2396,4.8671
2.2401,8.8346
2.2406,-1.5420
2.2411,1.5100
2.2416,10.0554
2.2421,3.6463
2.2426,-10.3926
2.2431,-13.1394
2.2436,-8.5615
2.2441,-15.8861
2.2446,-36.9445
2.2451,-49.4575
2.2456,-37.5549
2.2461,-11.9186
2.2466,5.4775
2.2471,8.2242
2.2476,7.6138
2.2481,17.3801
2.2486,34.1658
2.2491,40.8800
2.2496,29.2826
2.2501,12.1918
2.2506,7.6138
2.2511,15.5489
2.2516,18.2956
2.2521,4.8671
2.2526,-18.9381
2.2531,-42.4380
2.2536,-61.0549
2.2541,-72.3471
2.2546,-70.8211
2.2551,-54.0354
2.2556,-30.5355
2.2561,-12.2238
2.2566,-5.2043
2.2571,-3.9835
2.2576,-1.2368
2.2581,4.5619
2.2586,8.2242
2.2591,7.0035
2.2596,4.8671
2.2601,7.0035
2.2606,8.8346
2.2611,-1.2368
2.2616,-22.6004
2.2621,-35.4186
2.2626,-23.2108
2.2631,2.1203
2.2636,17.0749
2.2641,13.1073
2.2646,5.1723
2.2651,4.2567
2.2656,6.3931
2.2661,5.7827
2.2666,6.0879
2.2671,11.2762
2.2676,16.4645
2.2681,15.2437
2.2686,10.3606
2.2691,8.8346
2.2696,9.4450
2.2701,7.9190
2.2706,4.5619
2.2711,2.7307
2.2716,3.6463
2.2721,5.4775
2.2726,7.6138
2.2731,10.0554
2.2736,13.1073
2.2741,14.9385
2.2746,15.5489
2.2751,14.6333
2.2756,12.4970
2.2761,10.0554
2.2766,8.5294
2.2771,7.6138
2.2776,6.0879
2.2781,5.1723
2.2786,5.4775
2.2791,4.8671
2.2796,1.5100
2.2801,-1.5420
2.2806,-1.2368
2.2811,1.5100
2.2816,3.3411
2.2821,3.6463
2.2826,7.0035
2.2831,12.8022
2.2836,14.0229
2.2841,7.0035
2.2846,-0.9316
2.2851,-1.5420
2.2856,3.6463
2.2861,8.8346
2.2866,12.1918
2.2871,17.3801
2.2876,24.0943
2.2881,28.0619
2.2886,28.0619
2.2891,28.6723
2.2896,29.5878
2.2901,25.6203
2.2906,15.8541
2.2911,7.0035
2.2916,4.8671
2.2921,7.9190
2.2926,9.7502
2.2931,7.9190
2.2936,4.5619
2.2941,3.0359
2.2946,3.3411
2.2951,2.1203
2.2956,-5.2043
2.2961,-18.6329
2.2966,-29.3147
2.2971,-27.4835
2.2976,-16.1913
2.2981,-7.9511
2.2986,-8.5615
2.2991,-11.9186
2.2996,-10.6978
2.3001,-6.7303
2.3006,-5.2043
2.3011,-6.4251
2.3016,-7.0355
2.3021,-7.3407
2.3026,-9.4770
2.3031,-14.0550
2.3036,-20.1588
2.3041,-25.6523
2.3046,-28.0939
2.3051,-24.7368
2.3056,-20.4640
2.3061,-22.6004
2.3066,-30.2303
2.3071,-33.8926
2.3076,-29.0095
2.3081,-22.6004
2.3086,-24.4316
2.3091,-31.1458
2.3096,-33.2822
2.3101,-27.1783
2.3106,-16.8017
2.3111,-4.5939
2.3116,9.4450
2.3121,24.0943
2.3126,35.0813
2.3131,40.2696
2.3136,41.1852
2.3141,37.2177
2.3146,28.9775
2.3151,20.4320
2.3156,14.3281
2.3161,10.0554
2.3166,6.6983
2.3171,5.7827
2.3176,7.3087
2.3181,6.6983
2.3186,-0.0160
2.3191,-7.3407
2.3196,-11.3082
2.3201,-12.8342
2.3206,-13.7498
2.3211,-12.2238
2.3216,-7.0355
2.3221,-5.5095
2.3226,-13.4446
2.3231,-24.4316
2.3236,-27.7887
2.3241,-24.7368
2.3246,-24.1264
2.3251,-25.0420
2.3256,-17.7173
2.3261,-4.2887
2.3266,-0.6264
2.3271,-14.6653
2.3276,-30.8406
2.3281,-28.0939
2.3286,-7.3407
2.3291,10.3606
2.3296,10.3606
2.3301,-0.9316
2.3306,-10.0874
2.3311,-10.3926
2.3316,-7.9511
2.3321,-6.4251
2.3326,-0.6264
2.3331,14.6333
2.3336,35.3865
2.3341,50.6463
2.3346,56.4450
2.3351,57.0553
2.3356,60.4125
2.3361,68.0423
2.3366,76.2826
2.3371,79.0293
2.3376,71.7047
2.3381,56.4450
2.3386,42.7112
2.3391,38.7437
2.3396,43.9320
2.3401,52.7826
2.3406,63.1592
2.3411,75.0618
2.3416,86.0488
2.3421,92.4579
2.3426,96.1202
2.3431,97.6462
2.3436,85.4384
2.3441,48.8151
2.3446,-0.9316
2.3451,-38.1653
2.3456,-50.3731
2.3461,-51.2887
2.3466,-59.8341
2.3471,-75.0938
2.3476,-79.9769
2.3481,-63.4965
2.3486,-35.4186
2.3491,-19.2433
2.3496,-30.2303
2.3501,-56.7822
2.3506,-68.9900
2.3511,-53.7302
2.3516,-30.8406
2.3521,-28.3991
2.3526,-47.6263
2.3531,-71.1263
2.3536,-89.1328
2.3541,-101.9509
2.3546,-99.8146
2.3551,-74.7886
2.3556,-46.1004
2.3561,-44.5744
2.3566,-68.9900
2.3571,-82.1133
2.3576,-61.0549
2.3581,-27.1783
2.3586,-15.5809
2.3591,-27.7887
2.3596,-41.5225
2.3601,-42.1328
2.3606,-33.5874
2.3611,-21.3796
2.3616,-8.2563
2.3621,0.8996
2.3626,1.8152
2.3631,-1.5420
2.3636,-3.3732
2.3641,-1.8472
2.3646,-0.3212
2.3651,0.2892
2.3656,3.9515
2.3661,10.0554
2.3666,15.8541
2.3671,21.6528
2.3676,30.1982
2.3681,39.9645
2.3686,44.8476
2.3691,41.1852
2.3696,35.6917
2.3701,35.9969
2.3706,42.4060
2.3711,46.9839
2.3716,43.0164
2.3721,31.4190
2.3726,14.9385
2.3731,-2.4576
2.3736,-11.9186
2.3741,-3.3732
2.3746,19.5164
2.3751,34.7761
2.3756,23.4840
2.3761,-7.0355
2.3766,-26.5679
2.3771,-11.3082
2.3776,30.8086
2.3781,63.7696
2.3786,51.5618
2.3791,-4.2887
2.3796,-63.1913
2.3801,-82.4185
2.3806,-64.4120
2.3811,-47.3211
2.3816,-50.3731
2.3821,-52.8146
2.3826,-35.1134
2.3831,-11.9186
2.3836,-5.2043
2.3841,-6.7303
2.3846,4.5619
2.3851,23.7891
2.3856,30.1982
2.3861,24.3995
2.3866,27.7567
2.3871,44.8476
2.3876,59.1917
2.3881,59.4969
2.3886,50.9515
2.3891,46.0683
2.3896,55.8346
2.3901,82.9969
2.3906,108.6332
2.3911,105.2761
2.3916,75.3670
2.3921,57.3605
2.3926,69.2631
2.3931,79.6397
2.3936,57.6657
2.3941,27.1463
2.3946,21.9580
2.3951,15.8541
2.3956,-41.2173
2.3961,-134.3016
2.3966,-188.0158
2.3971,-170.0093
2.3976,-126.6717
2.3981,-108.3600
2.3986,-111.7172
2.3991,-111.4120
2.3996,-105.3081
2.4001,-100.1198
2.4006,-86.9964
2.4011,-58.3081
2.4016,-27.4835
2.4021,-8.8667
2.4026,-0.3212
2.4031,4.2567
2.4036,2.7307
2.4041,-3.0680
2.4046,-1.8472
2.4051,9.7502
2.4056,17.9905
2.4061,15.8541
2.4066,15.2437
2.4071,26.5359
2.4076,40.8800
2.4081,47.2891
2.4086,46.9839
2.4091,46.0683
2.4096,43.0164
2.4101,35.9969
2.4106,25.9255
2.4111,7.6138
2.4116,-22.9056
2.4121,-51.8991
2.4126,-53.7302
2.4131,-27.4835
2.4136,0.2892
2.4141,11.5814
2.4146,16.1593
2.4151,25.6203
2.4156,29.2826
2.4161,17.0749
2.4166,2.7307
2.4171,1.8152
2.4176,7.3087
2.4181,3.9515
2.4186,-3.9835
2.4191,0.5944
2.4196,18.2956
2.4201,32.3346
2.4206,33.5554
2.4211,29.8930
2.4216,27.1463
2.4221,23.4840
2.4226,19.5164
2.4231,19.5164
2.4236,22.8736
2.4241,23.1788
2.4246,19.5164
2.4251,17.0749
2.4256,17.0749
2.4261,19.5164
2.4266,28.6723
2.4271,45.4580
2.4276,52.4774
2.4281,30.8086
2.4286,-9.1718
2.4291,-31.7562
2.4296,-17.1069
2.4301,13.4125
2.4306,29.5878
2.4311,28.3671
2.4316,25.9255
2.4321,27.7567
2.4326,25.9255
2.4331,21.0424
2.4336,21.6528
2.4341,25.0099
2.4346,14.9385
2.4351,-12.5290
2.4356,-39.0809
2.4361,-42.4380
2.4366,-22.6004
2.4371,3.0359
2.4376,20.7372
2.4381,27.1463
2.4386,28.0619
2.4391,29.2826
2.4396,34.1658
2.4401,38.1333
2.4406,33.5554
2.4411,20.4320
2.4416,7.3087
2.4421,1.5100
2.4426,-1.2368
2.4431,-11.0030
2.4436,-29.9251
2.4441,-49.1523
2.4446,-59.2237
2.4451,-59.8341
2.4456,-55.2562
2.4461,-47.6263
2.4466,-34.5030
2.4471,-18.3277
2.4476,-7.0355
2.4481,-4.8991
2.4486,-3.3732
2.4491,4.8671
2.4496,14.3281
2.4501,14.6333
2.4506,8.8346
2.4511,10.3606
2.4516,23.4840
2.4521,36.3021
2.4526,37.8281
2.4531,29.8930
2.4536,17.9905
2.4541,6.6983
2.4546,1.5100
2.4551,7.3087
2.4556,16.1593
2.4561,11.2762
2.4566,-7.3407
2.4571,-19.2433
2.4576,-8.8667
2.4581,14.0229
2.4586,31.4190
2.4591,36.9125
2.4596,36.6073
2.4601,34.7761
2.4606,29.2826
2.4611,17.0749
2.4616,-7.0355
2.4621,-44.2692
2.4626,-76.9250
2.4631,-78.1458
2.4636,-43.6588
2.4641,-4.2887
2.4646,5.4775
2.4651,-12.8342
2.4656,-31.4510
2.4661,-28.0939
2.4666,-8.2563
2.4671,10.3606
2.4676,19.8216
2.4681,25.6203
2.4686,32.6398
2.4691,37.8281
2.4696,34.4710
2.4701,26.2307
2.4706,20.7372
2.4711,17.0749
2.4716,4.8671
2.4721,-13.1394
2.4726,-20.7692
2.4731,-13.7498
2.4736,-15.5809
2.4741,-45.4900
2.4746,-80.8925
2.4751,-82.1133
2.4756,-48.2367
2.4761,-18.6329
2.4766,-18.3277
2.4771,-31.4510
2.4776,-32.9770
2.4781,-24.1264
2.4786,-19.8537
2.4791,-21.3796
2.4796,-20.4640
2.4801,-16.1913
2.4806,-14.6653
2.4811,-16.8017
2.4816,-16.1913
2.4821,-11.6134
2.4826,-4.5939
2.4831,4.8671
2.4836,15.5489
2.4841,21.3476
2.4846,17.6853
2.4851,11.2762
2.4856,11.8866
2.4861,20.4320
2.4866,29.5878
2.4871,33.5554
2.4876,32.6398
2.4881,30.8086
2.4886,31.1138
2.4891,33.8606
2.4896,34.7761
2.4901,29.5878
2.4906,21.9580
2.4911,17.9905
2.4916,14.9385
2.4921,1.8152
2.4926,-23.5160
2.4931,-44.8796
2.4936,-43.6588
2.4941,-23.2108
2.4946,-3.9835
2.4951,-0.0160
2.4956,-5.8147
2.4961,-8.8667
2.4966,-6.7303
2.4971,-5.8147
2.4976,-8.5615
2.4981,-10.6978
2.4986,-9.1718
2.4991,-6.4251
2.4996,-5.8147
2.5001,-6.1199
2.5006,-5.5095
2.5011,-4.2887
2.5016,-3.9835
2.5021,-3.3732
2.5026,-1.8472
2.5031,-2.1524
2.5036,-4.2887
2.5041,-3.6783
2.5046,3.0359
2.5051,10.3606
2.5056,10.3606
2.5061,6.6983
2.5066,6.6983
2.5071,9.4450
2.5076,9.4450
2.5081,8.8346
2.5086,11.8866
2.5091,9.4450
2.5096,-10.6978
2.5101,-39.6913
2.5106,-50.0679
2.5111,-34.5030
2.5116,-16.4965
2.5121,-17.4121
2.5126,-27.4835
2.5131,-25.3472
2.5136,-11.3082
2.5141,-1.2368
2.5146,-1.5420
2.5151,-3.9835
2.5156,-2.4576
2.5161,0.8996
2.5166,3.3411
2.5171,3.6463
2.5176,-0.9316
2.5181,-7.9511
2.5186,-8.8667
2.5191,-0.3212
2.5196,7.0035
2.5201,4.2567
2.5206,-3.9835
2.5211,-7.3407
2.5216,-3.3732
2.5221,1.2048
2.5226,4.8671
2.5231,10.6658
2.5236,16.4645
2.5241,17.3801
2.5246,13.7177
2.5251,11.5814
2.5256,12.8022
2.5261,13.4125
2.5266,10.6658
2.5271,7.0035
2.5276,5.4775
2.5281,5.1723
2.5286,4.2567
2.5291,1.8152
2.5296,-0.6264
2.5301,-1.8472
2.5306,-0.3212
2.5310,1.5100
2.5315,2.1203
2.5320,0.8996
2.5325,-0.6264
2.5330,-3.6783
2.5335,-7.9511
2.5340,-10.6978
2.5345,-8.5615
2.5350,-3.9835
2.5355,-0.9316
2.5360,-0.0160
2.5365,2.1203
2.5370,3.9515
2.5375,4.2567
2.5380,7.3087
2.5385,15.5489
2.5390,22.5684
2.5395,22.8736
2.5400,21.9580
2.5405,28.0619
2.5410,34.4710
2.5415,31.7242
2.5420,25.6203
2.5425,31.1138
2.5430,45.7631
2.5435,51.2566
2.5440,41.1852
2.5445,27.1463
2.5450,15.8541
2.5455,1.2048
2.5460,-12.8342
2.5465,-14.0550
2.5470,-8.5615
2.5475,-24.1264
2.5480,-68.6848
2.5485,-108.3600
2.5490,-109.5808
2.5495,-82.7237
2.5500,-63.1913
2.5505,-59.8341
2.5510,-53.1198
2.5515,-34.5030
2.5520,-17.1069
2.5525,-11.6134
2.5530,-10.6978
2.5535,-6.7303
2.5540,-4.2887
2.5545,-7.9511
2.5550,-13.1394
2.5555,-14.0550
2.5560,-10.3926
2.5565,-5.8147
2.5570,-0.0160
2.5575,5.1723
2.5580,8.5294
2.5585,8.8346
2.5590,7.3087
2.5595,5.7827
2.5600,3.9515
2.5605,2.1203
2.5610,1.5100
2.5615,2.4255
2.5620,2.7307
2.5625,2.7307
2.5630,3.0359
2.5635,3.9515
2.5640,6.0879
2.5645,10.6658
2.5650,16.1593
2.5655,20.7372
2.5660,21.6528
2.5665,20.1268
2.5670,18.2956
2.5675,17.3801
2.5680,17.0749
2.5685,16.4645
2.5690,15.5489
2.5695,15.8541
2.5700,17.6853
2.5705,18.2956
2.5710,14.9385
2.5715,8.2242
2.5720,2.4255
2.5725,-0.3212
2.5730,-2.4576
2.5735,-5.2043
2.5740,-4.8991
2.5745,-1.2368
2.5750,1.8152
2.5755,1.2048
2.5760,-1.2368
2.5765,-2.1524
2.5770,-0.9316
2.5775,1.2048
2.5780,5.4775
2.5785,13.4125
2.5790,24.0943
2.5795,34.7761
2.5800,44.2372
2.5805,51.8670
2.5810,56.4450
2.5815,57.6657
2.5820,58.2761
2.5825,59.1917
2.5830,57.9709
2.5835,50.9515
2.5840,35.0813
2.5845,10.6658
2.5850,-15.2757
2.5855,-26.2627
2.5860,-14.6653
2.5865,0.5944
2.5870,-8.2563
2.5875,-43.9640
2.5880,-76.0094
2.5885,-78.7562
2.5890,-60.1393
2.5895,-44.2692
2.5900,-36.6393
2.5905,-26.8731
2.5910,-11.9186
2.5915,-0.9316
2.5920,-0.3212
2.5925,-5.8147
2.5930,-14.0550
2.5935,-24.4316
2.5940,-32.6718
2.5945,-33.2822
2.5950,-26.8731
2.5955,-18.6329
2.5960,-11.6134
2.5965,-4.2887
2.5970,1.2048
2.5975,2.1203
2.5980,-0.0160
2.5985,0.5944
2.5990,5.7827
2.5995,9.1398
2.6000,6.3931
2.6005,0.2892
2.6010,-3.9835
2.6015,-5.8147
2.6020,-5.8147
2.6025,-4.5939
2.6030,-0.3212
2.6035,6.0879
2.6040,11.2762
2.6045,10.6658
2.6050,5.1723
2.6055,1.8152
2.6060,5.1723
2.6065,12.1918
2.6070,17.3801
2.6075,18.9060
2.6080,18.2956
2.6085,15.8541
2.6090,11.2762
2.6095,7.9190
2.6100,8.8346
2.6105,11.8866
2.6110,12.1918
2.6115,10.3606
2.6120,9.1398
2.6125,7.6138
2.6130,1.8152
2.6135,-5.5095
2.6140,-9.1718
2.6145,-6.1199
2.6150,0.5944
2.6155,7.6138
2.6160,11.2762
2.6165,10.6658
2.6170,8.2242
2.6175,11.5814
2.6180,21.3476
2.6185,25.0099
2.6190,12.4970
2.6195,-8.2563
2.6200,-18.9381
2.6205,-12.5290
2.6210,0.2892
2.6215,6.3931
2.6220,-0.0160
2.6225,-15.5809
2.6230,-32.9770
2.6235,-41.8276
2.6240,-38.1653
2.6245,-29.9251
2.6250,-26.2627
2.6255,-26.2627
2.6260,-21.9900
2.6265,-10.6978
2.6270,2.7307
2.6275,15.8541
2.6280,27.7567
2.6285,32.3346
2.6290,25.0099
2.6295,10.6658
2.6300,2.1203
2.6305,4.5619
2.6310,12.4970
2.6315,19.2112
2.6320,21.3476
2.6325,17.0749
2.6330,6.0879
2.6335,-8.2563
2.6340,-18.0225
2.6345,-21.3796
2.6350,-22.2952
2.6355,-23.5160
2.6360,-23.2108
2.6365,-20.4640
2.6370,-17.7173
2.6375,-16.4965
2.6380,-11.9186
2.6385,3.6463
2.6390,29.8930
2.6395,51.8670
2.6400,52.7826
2.6405,31.7242
2.6410,8.5294
2.6415,3.6463
2.6420,17.3801
2.6425,30.8086
2.6430,30.5034
2.6435,21.0424
2.6440,14.0229
2.6445,12.8022
2.6450,12.8022
2.6455,10.6658
2.6460,8.2242
2.6465,6.3931
2.6470,4.8671
2.6475,3.6463
2.6480,3.0359
2.6485,1.8152
2.6490,-0.0160
2.6495,-0.6264
2.6500,-0.6264
2.6505,-1.2368
2.6510,-2.7628
2.6515,-2.7628
2.6520,-1.5420
2.6525,-1.5420
2.6530,-3.0680
2.6535,-4.5939
2.6540,-5.2043
2.6545,-6.7303
2.6550,-9.7822
2.6555,-11.9186
2.6560,-11.6134
2.6565,-10.6978
2.6570,-11.3082
2.6575,-11.9186
2.6580,-12.2238
2.6585,-11.9186
2.6590,-11.3082
2.6595,-10.3926
2.6600,-9.1718
2.6605,-9.1718
2.6610,-9.1718
2.6615,-7.0355
2.6620,-3.9835
2.6625,-2.7628
2.6630,-2.1524
2.6635,-0.0160
2.6640,1.5100
2.6645,-2.4576
2.6650,-8.8667
2.6655,-8.2563
2.6660,-1.2368
2.6665,-1.2368
2.6670,-11.9186
2.6675,-19.8537
2.6680,-12.8342
2.6685,-0.6264
2.6690,-1.2368
2.6695,-12.2238
2.6700,-17.1069
2.6705,-8.2563
2.6710,1.8152
2.6715,2.7307
2.6720,-1.2368
2.6725,-3.3732
2.6730,-5.2043
2.6735,-11.3082
2.6740,-18.0225
2.6745,-19.8537
2.6750,-18.3277
2.6755,-18.9381
2.6760,-22.6004
2.6765,-23.5160
2.6770,-18.9381
2.6775,-12.8342
2.6780,-9.1718
2.6785,-9.1718
2.6790,-10.0874
2.6795,-9.7822
2.6800,-8.5615
2.6805,-9.4770
2.6810,-12.2238
2.6815,-13.4446
2.6820,-11.9186
2.6825,-9.7822
2.6830,-9.1718
2.6835,-7.0355
2.6840,0.2892
2.6845,8.5294
2.6850,11.2762
2.6855,9.4450
2.6860,9.1398
2.6865,11.2762
2.6870,10.3606
2.6875,7.0035
2.6880,7.9190
2.6885,14.6333
2.6890,19.2112
2.6895,17.3801
2.6900,15.5489
2.6905,19.2112
2.6910,25.6203
2.6915,26.2307
2.6920,20.4320
2.6925,12.4970
2.6930,4.8671
2.6935,-0.9316
2.6940,-2.4576
2.6945,0.8996
2.6950,6.0879
2.6955,7.9190
2.6960,6.6983
2.6965,4.8671
2.6970,2.7307
2.6975,0.5944
2.6980,-0.0160
2.6985,1.2048
2.6990,2.7307
2.6995,3.3411
2.7000,3.9515
2.7005,5.4775
2.7010,6.3931
2.7015,5.4775
2.7020,5.1723
2.7025,6.0879
2.7030,6.3931
2.7035,5.1723
2.7040,3.9515
2.7045,3.9515
2.7050,2.7307
2.7055,-0.3212
2.7060,-4.8991
2.7065,-7.9511
2.7070,-9.1718
2.7075,-7.9511
2.7080,-2.4576
2.7085,5.1723
2.7090,8.2242
2.7095,2.7307
2.7100,-5.2043
2.7105,-9.1718
2.7110,-8.8667
2.7115,-8.8667
2.7120,-10.6978
2.7125,-11.0030
2.7130,-8.2563
2.7135,-4.2887
2.7140,1.2048
2.7145,10.3606
2.7150,20.1268
2.7155,24.7047
2.7160,21.3476
2.7165,15.2437
2.7170,12.1918
2.7175,10.9710
2.7180,7.6138
2.7185,0.2892
2.7190,-7.0355
2.7195,-10.0874
2.7200,-7.3407
2.7205,-0.0160
2.7210,8.2242
2.7215,15.2437
2.7220,19.2112
2.7225,21.0424
2.7230,20.7372
2.7235,17.9905
2.7240,12.1918
2.7245,5.1723
2.7250,1.8152
2.7255,3.3411
2.7260,5.7827
2.7265,3.3411
2.7270,-0.6264
2.7275,1.8152
2.7280,12.1918
2.7285,21.0424
2.7290,18.9060
2.7295,9.4450
2.7300,1.5100
2.7305,-0.9316
2.7310,-2.1524
2.7315,-4.2887
2.7320,-4.8991
2.7325,-2.4576
2.7330,-0.6264
2.7335,-2.4576
2.7340,-5.5095
2.7345,-6.1199
2.7350,-3.9835
2.7355,-1.2368
2.7360,-0.0160
2.7365,-0.9316
2.7370,-3.9835
2.7375,-8.5615
2.7380,-13.1394
2.7385,-17.4121
2.7390,-21.3796
2.7395,-25.3472
2.7400,-28.7043
2.7405,-29.9251
2.7410,-29.3147
2.7415,-26.2627
2.7420,-23.2108
2.7425,-22.6004
2.7430,-23.8212
2.7435,-20.4640
2.7440,-8.8667
2.7445,5.1723
2.7450,11.2762
2.7455,7.3087
2.7460,1.2048
2.7465,1.8152
2.7470,8.5294
2.7475,15.8541
2.7480,18.2956
2.7485,12.8022
2.7490,2.4255
2.7495,-5.8147
2.7500,-7.6459
2.7505,-4.8991
2.7510,-3.9835
2.7515,-5.5095
2.7520,-5.5095
2.7525,-3.0680
2.7530,-1.8472
2.7535,-2.7628
2.7540,-3.3732
2.7545,-4.8991
2.7550,-9.7822
2.7555,-12.2238
2.7560,-0.9316
2.7565,22.8736
2.7570,44.5424
2.7575,49.7307
2.7580,42.7112
2.7585,36.3021
2.7590,33.2502
2.7595,26.5359
2.7600,14.3281
2.7605,1.8152
2.7610,-4.2887
2.7615,-5.8147
2.7620,-6.1199
2.7625,-6.4251
2.7630,-6.7303
2.7635,-6.4251
2.7640,-6.1199
2.7645,-6.7303
2.7650,-8.2563
2.7655,-10.0874
2.7660,-10.6978
2.7665,-10.6978
2.7670,-10.6978
2.7675,-11.0030
2.7680,-10.3926
2.7685,-9.7822
2.7690,-12.8342
2.7695,-18.9381
2.7700,-23.5160
2.7705,-23.8212
2.7710,-23.5160
2.7715,-27.4835
2.7720,-32.9770
2.7725,-32.0614
2.7730,-23.2108
2.7735,-14.0550
2.7740,-12.2238
2.7745,-16.4965
2.7750,-14.9705
2.7755,-1.8472
2.7760,18.2956
2.7765,34.1658
2.7770,39.6593
2.7775,37.2177
2.7780,33.2502
2.7785,28.6723
2.7790,23.7891
2.7795,19.5164
2.7800,17.6853
2.7805,17.6853
2.7810,17.0749
2.7815,14.3281
2.7820,10.9710
2.7825,7.6138
2.7830,4.5619
2.7835,2.1203
2.7840,0.8996
2.7845,0.2892
2.7850,-1.5420
2.7855,-3.6783
2.7860,-4.2887
2.7865,-2.4576
2.7870,-1.8472
2.7875,-4.5939
2.7880,-9.4770
2.7885,-13.7498
2.7890,-15.8861
2.7895,-17.4121
2.7900,-19.2433
2.7905,-23.2108
2.7910,-28.7043
2.7915,-32.0614
2.7920,-30.8406
2.7925,-25.0420
2.7930,-19.5485
2.7935,-18.3277
2.7940,-20.4640
2.7945,-21.6848
2.7950,-18.0225
2.7955,-6.7303
2.7960,10.9710
2.7965,30.5034
2.7970,43.6268
2.7975,45.7631
2.7980,39.6593
2.7985,31.4190
2.7990,25.6203
2.7995,22.2632
2.8000,19.8216
2.8005,16.4645
2.8010,11.5814
2.8015,6.6983
2.8020,3.9515
2.8025,3.6463
2.8030,3.9515
2.8035,3.3411
2.8040,1.5100
2.8045,-1.2368
2.8050,-4.8991
2.8055,-7.3407
2.8060,-5.5095
2.8065,-0.3212
2.8070,3.9515
2.8075,3.3411
2.8080,-0.9316
2.8085,-6.1199
2.8090,-10.3926
2.8095,-11.6134
2.8100,-7.9511
2.8105,-0.6264
2.8110,3.6463
2.8115,1.5100
2.8120,-5.2043
2.8125,-8.8667
2.8130,-5.2043
2.8135,1.8152
2.8140,5.4775
2.8145,1.8152
2.8150,-5.2043
2.8155,-10.0874
2.8160,-7.3407
2.8165,1.5100
2.8170,12.4970
2.8175,20.7372
2.8180,22.5684
2.8185,17.6853
2.8190,10.0554
2.8195,4.2567
2.8200,2.1203
2.8205,0.8996
2.8210,-1.8472
2.8215,-5.2043
2.8220,-4.5939
2.8225,-1.2368
2.8230,0.5944
2.8235,-0.3212
2.8240,-2.1524
2.8245,-2.7628
2.8250,-2.7628
2.8255,-2.4576
2.8260,-0.9316
2.8265,1.5100
2.8270,2.4255
2.8275,-0.0160
2.8280,-3.6783
2.8285,-6.1199
2.8290,-7.9511
2.8295,-11.0030
2.8300,-14.9705
2.8305,-15.8861
2.8310,-13.1394
2.8315,-8.8667
2.8320,-6.4251
2.8325,-6.1199
2.8330,-7.3407
2.8335,-7.9511
2.8340,-7.3407
2.8345,-5.8147
2.8350,-5.5095
2.8355,-7.3407
2.8360,-9.1718
2.8365,-10.3926
2.8370,-11.9186
2.8375,-14.9705
2.8380,-18.6329
2.8385,-20.1588
2.8390,-20.1588
2.8395,-20.4640
2.8400,-21.0744
2.8405,-20.4640
2.8410,-18.6329
2.8415,-15.2757
2.8420,-9.1718
2.8425,2.1203
2.8430,18.2956
2.8435,31.7242
2.8440,35.9969
2.8445,30.5034
2.8450,19.8216
2.8455,8.8346
2.8460,3.3411
2.8465,4.2567
2.8470,7.0035
2.8475,6.3931
2.8480,2.4255
2.8485,1.2048
2.8490,6.6983
2.8495,14.9385
2.8500,18.6008
2.8505,14.3281
2.8510,6.0879
2.8515,-0.9316
2.8520,-5.5095
2.8525,-8.2563
2.8530,-9.7822
2.8535,-9.4770
2.8540,-7.9511
2.8545,-7.6459
2.8550,-9.7822
2.8555,-11.6134
2.8560,-8.8667
2.8565,-1.5420
2.8570,4.5619
2.8575,5.4775
2.8580,2.4255
2.8585,0.2892
2.8590,1.8152
2.8595,5.1723
2.8600,8.5294
2.8605,10.9710
2.8610,12.4970
2.8615,11.8866
2.8620,10.3606
2.8625,9.7502
2.8630,10.9710
2.8635,11.5814
2.8640,9.7502
2.8645,7.0035
2.8650,6.6983
2.8655,7.9190
2.8660,8.2242
2.8665,5.4775
2.8670,0.8996
2.8675,-3.0680
2.8680,-5.2043
2.8685,-4.8991
2.8690,-3.3732
2.8695,-1.5420
2.8700,-0.3212
2.8705,-0.6264
2.8710,-1.8472
2.8715,-3.9835
2.8720,-5.5095
2.8725,-4.8991
2.8730,-2.7628
2.8735,-1.2368
2.8740,-2.1524
2.8745,-4.2887
2.8750,-5.5095
2.8755,-4.8991
2.8760,-5.5095
2.8765,-8.2563
2.8770,-11.0030
2.8775,-11.3082
2.8780,-9.7822
2.8785,-9.7822
2.8790,-11.9186
2.8795,-12.5290
2.8800,-9.1718
2.8805,-3.0680
2.8810,0.8996
2.8815,-0.0160
2.8820,-5.2043
2.8825,-10.0874
2.8830,-9.4770
2.8835,-2.7628
2.8840,5.1723
2.8845,13.4125
2.8850,21.6528
2.8855,29.8930
2.8860,32.9450
2.8865,27.4515
2.8870,16.7697
2.8875,8.8346
2.8880,6.3931
2.8885,6.6983
2.8890,6.0879
2.8895,3.9515
2.8900,1.8152
2.8905,-0.0160
2.8910,-1.5420
2.8915,-1.8472
2.8920,-1.5420
2.8925,-0.6264
2.8930,0.8996
2.8935,2.7307
2.8940,3.0359
2.8945,1.2048
2.8950,0.2892
2.8955,1.8152
2.8960,3.9515
2.8965,3.6463
2.8970,3.9515
2.8975,8.5294
2.8980,15.2437
2.8985,16.4645
2.8990,9.7502
2.8995,1.2048
2.9000,-3.0680
2.9005,-4.5939
2.9010,-6.1199
2.9015,-7.9511
2.9020,-8.2563
2.9025,-7.9511
2.9030,-9.1718
2.9035,-13.1394
2.9040,-17.7173
2.9045,-19.2433
2.9050,-14.9705
2.9055,-5.2043
2.9060,6.0879
2.9065,14.3281
2.9070,17.6853
2.9075,17.0749
2.9080,14.3281
2.9085,10.9710
2.9090,8.5294
2.9095,7.9190
2.9100,7.6138
2.9105,6.3931
2.9110,6.0879
2.9115,8.8346
2.9120,11.5814
2.9125,7.9190
2.9130,-2.4576
2.9135,-11.6134
2.9140,-11.0030
2.9145,-4.5939
2.9150,-2.1524
2.9155,-7.0355
2.9160,-13.4446
2.9165,-18.0225
2.9170,-24.4316
2.9175,-32.3666
2.9180,-32.6718
2.9185,-21.6848
2.9190,-9.4770
2.9195,-6.7303
2.9200,-4.8991
2.9205,13.1073
2.9210,46.3735
2.9215,70.4839
2.9220,69.2631
2.9225,49.4255
2.9230,26.2307
2.9235,6.6983
2.9240,-6.4251
2.9245,-6.4251
2.9250,8.2242
2.9255,25.0099
2.9260,28.0619
2.9265,20.1268
2.9270,14.3281
2.9275,15.8541
2.9280,16.4645
2.9285,11.5814
2.9290,4.8671
2.9295,0.8996
2.9300,-0.9316
2.9305,-3.3732
2.9310,-5.5095
2.9315,-7.0355
2.9320,-7.0355
2.9325,-3.6783
2.9330,4.2567
2.9335,11.5814
2.9340,11.5814
2.9345,4.5619
2.9350,-2.4576
2.9355,-6.7303
2.9360,-10.0874
2.9365,-13.7498
2.9370,-14.3602
2.9375,-10.0874
2.9380,-5.8147
2.9385,-6.1199
2.9390,-10.3926
2.9395,-14.9705
2.9400,-18.3277
2.9405,-21.9900
2.9410,-26.2627
2.9415,-29.6199
2.9420,-30.5355
2.9425,-30.5355
2.9430,-29.6199
2.9435,-25.9575
2.9440,-18.9381
2.9445,-12.8342
2.9450,-11.6134
2.9455,-11.9186
2.9460,-6.7303
2.9465,6.0879
2.9470,20.4320
2.9475,27.1463
2.9480,24.3995
2.9485,17.9905
2.9490,12.4970
2.9495,8.8346
2.9500,5.7827
2.9505,3.0359
2.9510,-0.0160
2.9515,-2.1524
2.9520,-3.3732
2.9525,-3.0680
2.9530,-2.1524
2.9535,-2.4576
2.9540,-3.6783
2.9545,-4.5939
2.9550,-4.8991
2.9555,-5.8147
2.9560,-6.7303
2.9565,-6.4251
2.9570,-5.2043
2.9575,-4.2887
2.9580,-3.3732
2.9585,-2.4576
2.9590,-2.1524
2.9595,-3.9835
2.9600,-7.0355
2.9605,-8.8667
2.9610,-9.1718
2.9615,-9.4770
2.9620,-10.6978
2.9625,-11.0030
2.9630,-10.3926
2.9635,-10.6978
2.9640,-12.2238
2.9645,-13.4446
2.9650,-13.4446
2.9655,-13.1394
2.9660,-13.4446
2.9665,-13.7498
2.9670,-14.3602
2.9675,-16.1913
2.9680,-17.1069
2.9685,-11.9186
2.9690,-2.7628
2.9695,1.8152
2.9700,-1.8472
2.9705,-9.4770
2.9710,-12.8342
2.9715,-13.4446
2.9720,-15.5809
2.9725,-18.3277
2.9730,-17.1069
2.9735,-14.6653
2.9740,-14.0550
2.9745,-11.0030
2.9750,1.2048
2.9755,17.9905
2.9760,24.3995
2.9765,14.9385
2.9770,0.8996
2.9775,-6.1199
2.9780,-6.1199
2.9785,-5.2043
2.9790,-4.8991
2.9795,-3.6783
2.9800,-3.9835
2.9805,-5.5095
2.9810,-2.1524
2.9815,7.6138
2.9820,17.3801
2.9825,17.3801
2.9830,8.2242
2.9835,-1.8472
2.9840,-7.9511
2.9845,-9.1718
2.9850,-5.2043
2.9855,3.6463
2.9860,12.4970
2.9865,15.2437
2.9870,11.5814
2.9875,7.0035
2.9880,5.1723
2.9885,5.4775
2.9890,5.7827
2.9895,6.3931
2.9900,9.1398
2.9905,14.3281
2.9910,22.5684
2.9915,30.8086
2.9920,35.6917
2.9925,35.3865
2.9930,30.1982
2.9935,21.9580
2.9940,12.1918
2.9945,5.4775
2.9950,6.3931
2.9955,14.0229
2.9960,20.4320
2.9965,18.9060
2.9970,10.9710
2.9975,3.3411
2.9980,-0.6264
2.9985,-3.9835
2.9990,-6.4251
2.9995,-6.7303
3.0000,-5.2043
3.0005,-4.2887
3.0010,-6.1199
3.0015,-8.5615
3.0020,-9.4770
3.0025,-8.2563
3.0030,-7.9511
3.0035,-10.3926
3.0040,-13.7498
3.0045,-16.1913
3.0050,-17.7173
3.0055,-21.0744
3.0060,-26.2627
3.0065,-29.3147
3.0070,-26.5679
3.0075,-21.6848
3.0080,-19.8537
3.0085,-21.9900
3.0090,-23.2108
3.0095,-20.7692
3.0100,-15.8861
3.0105,-9.1718
3.0110,-0.6264
3.0115,7.3087
3.0120,12.8022
3.0125,16.4645
3.0130,22.5684
3.0135,30.8086
3.0140,35.3865
3.0145,34.4710
3.0150,32.9450
3.0155,33.5554
3.0160,30.8086
3.0165,18.6008
3.0170,2.7307
3.0175,-6.7303
3.0180,-8.5615
3.0185,-10.3926
3.0190,-18.3277
3.0195,-28.7043
3.0200,-34.8082
3.0205,-32.3666
3.0210,-21.6848
3.0215,-6.7303
3.0220,4.2567
3.0225,6.6983
3.0230,5.1723
3.0235,9.7502
3.0240,24.7047
3.0245,41.4904
3.0250,47.5943
3.0255,40.8800
3.0260,31.1138
3.0265,26.2307
3.0270,25.3151
3.0275,22.5684
3.0280,16.4645
3.0285,10.6658
3.0290,8.2242
3.0295,7.9190
3.0300,7.6138
3.0305,7.0035
3.0310,7.9190
3.0315,9.1398
3.0320,8.5294
3.0325,5.4775
3.0330,1.5100
3.0335,-1.5420
3.0340,-3.6783
3.0345,-3.9835
3.0350,-2.7628
3.0355,-0.9316
3.0360,-0.3212
3.0365,-1.2368
3.0370,-2.1524
3.0375,-3.0680
3.0380,-3.6783
3.0385,-4.2887
3.0390,-4.5939
3.0395,-5.5095
3.0400,-6.7303
3.0405,-6.1199
3.0410,-3.3732
3.0415,-1.8472
3.0420,-4.2887
3.0425,-8.2563
3.0430,-9.7822
3.0435,-10.0874
3.0440,-12.8342
3.0445,-18.0225
3.0450,-20.7692
3.0455,-18.6329
3.0460,-15.5809
3.0465,-15.2757
3.0470,-17.4121
3.0475,-17.7173
3.0480,-14.9705
3.0485,-8.8667
3.0490,-0.0160
3.0495,7.9190
3.0500,11.8866
3.0505,10.3606
3.0510,7.3087
3.0515,6.6983
3.0520,7.0035
3.0525,3.9515
3.0530,-3.3732
3.0535,-9.4770
3.0540,-9.7822
3.0545,-6.7303
3.0550,-5.5095
3.0555,-8.5615
3.0560,-13.7498
3.0565,-18.0225
3.0570,-21.0744
3.0575,-22.2952
3.0580,-21.9900
3.0585,-20.1588
3.0590,-16.1913
3.0595,-9.4770
3.0600,-1.8472
3.0605,2.4255
3.0610,2.1203
3.0615,3.6463
3.0620,11.2762
3.0625,18.9060
3.0630,15.2437
3.0635,1.2048
3.0640,-7.6459
3.0645,-2.4576
3.0650,9.1398
3.0655,15.5489
3.0660,16.7697
3.0665,21.0424
3.0670,27.1463
3.0675,26.5359
3.0680,20.1268
3.0685,17.6853
3.0690,23.4840
3.0695,29.5878
3.0700,26.5359
3.0705,14.9385
3.0710,2.1203
3.0715,-5.5095
3.0720,-6.7303
3.0725,-3.3732
3.0730,-0.0160
3.0735,-0.0160
3.0740,-3.0680
3.0745,-5.5095
3.0750,-8.5615
3.0755,-13.7498
3.0760,-16.4965
3.0765,-10.6978
3.0770,-0.0160
3.0775,4.8671
3.0780,-0.3212
3.0785,-7.0355
3.0790,-7.0355
3.0795,-3.6783
3.0800,-3.0680
3.0805,-3.3732
3.0810,0.2892
3.0815,7.3087
3.0820,10.0554
3.0825,6.0879
3.0830,-0.0160
3.0835,-4.2887
3.0840,-6.7303
3.0845,-8.2563
3.0850,-7.3407
3.0855,-4.5939
3.0860,-2.4576
3.0865,-2.4576
3.0870,-3.3732
3.0875,-3.9835
3.0880,-3.3732
3.0885,-2.1524
3.0890,-1.2368
3.0895,-1.5420
3.0900,-2.4576
3.0905,-3.6783
3.0910,-4.2887
3.0915,-3.9835
3.0920,-3.3732
3.0925,-1.8472
3.0930,-0.6264
3.0934,-0.3212
3.0939,-1.2368
3.0944,-2.1524
3.0949,-2.4576
3.0954,-3.0680
3.0959,-3.6783
3.0964,-3.6783
3.0969,-2.7628
3.0974,-3.0680
3.0979,-4.5939
3.0984,-5.5095
3.0989,-5.8147
3.0994,-7.6459
3.0999,-11.0030
3.1004,-12.5290
3.1009,-8.2563
3.1014,-1.2368
3.1019,3.6463
3.1024,5.1723
3.1029,4.2567
3.1034,3.3411
3.1039,3.3411
3.1044,6.0879
3.1049,12.1918
3.1054,17.6853
3.1059,19.5164
3.1064,17.6853
3.1069,13.1073
3.1074,5.4775
3.1079,-5.8147
3.1084,-17.7173
3.1089,-23.2108
3.1094,-21.0744
3.1099,-17.1069
3.1104,-18.3277
3.1109,-25.6523
3.1114,-33.5874
3.1119,-38.4705
3.1124,-43.9640
3.1129,-54.0354
3.1134,-64.4120
3.1139,-65.6328
3.1144,-52.8146
3.1149,-32.3666
3.1154,-12.5290
3.1159,0.5944
3.1164,8.2242
3.1169,16.7697
3.1174,39.0489
3.1179,82.6917
3.1184,132.7436
3.1189,157.7695
3.1194,139.1526
3.1199,93.9839
3.1204,54.6138
3.1209,35.6917
3.1214,28.3671
3.1219,19.8216
3.1224,10.3606
3.1229,4.2567
3.1234,-0.0160
3.1239,-4.5939
3.1244,-10.0874
3.1249,-12.8342
3.1254,-14.3602
3.1259,-15.2757
3.1264,-14.6653
3.1269,-11.9186
3.1274,-9.4770
3.1279,-10.6978
3.1284,-13.7498
3.1289,-11.9186
3.1294,-1.5420
3.1299,12.1918
3.1304,19.5164
3.1309,13.7177
3.1314,-0.6264
3.1319,-13.4446
3.1324,-17.1069
3.1329,-12.2238
3.1334,-4.2887
3.1339,1.8152
3.1344,4.2567
3.1349,2.1203
3.1354,-3.3732
3.1359,-9.1718
3.1364,-10.3926
3.1369,-6.7303
3.1374,-1.2368
3.1379,1.2048
3.1384,-0.0160
3.1389,-3.3732
3.1394,-7.3407
3.1399,-10.3926
3.1404,-11.0030
3.1409,-8.5615
3.1414,-4.2887
3.1419,-1.5420
3.1424,-1.8472
3.1429,-2.4576
3.1434,-0.3212
3.1439,3.3411
3.1444,6.3931
3.1449,9.1398
3.1454,12.8022
3.1459,14.3281
3.1464,9.7502
3.1469,0.2892
3.1474,-6.4251
3.1479,-7.6459
3.1484,-5.8147
3.1489,-5.2043
3.1494,-6.7303
3.1499,-8.2563
3.1504,-9.4770
3.1509,-9.7822
3.1514,-9.1718
3.1519,-7.9511
3.1524,-7.3407
3.1529,-7.3407
3.1534,-7.6459
3.1539,-8.8667
3.1544,-11.6134
3.1549,-14.3602
3.1554,-14.6653
3.1559,-14.0550
3.1564,-15.2757
3.1569,-16.8017
3.1574,-14.0550
3.1579,-8.2563
3.1584,-5.5095
3.1589,-9.4770
3.1594,-15.8861
3.1599,-18.6329
3.1604,-17.4121
3.1609,-15.8861
3.1614,-16.1913
3.1619,-18.0225
3.1624,-19.2433
3.1629,-18.6329
3.1634,-17.1069
3.1639,-16.4965
3.1644,-18.0225
3.1649,-19.2433
3.1654,-16.1913
3.1659,-9.4770
3.1664,-3.6783
3.1669,-1.2368
3.1674,-0.0160
3.1679,2.4255
3.1684,5.7827
3.1689,7.3087
3.1694,8.5294
3.1699,11.5814
3.1704,18.6008
3.1709,26.8411
3.1714,32.9450
3.1719,33.5554
3.1724,29.5878
3.1729,24.7047
3.1734,20.4320
3.1739,14.6333
3.1744,5.7827
3.1749,-0.9316
3.1754,-0.3212
3.1759,5.4775
3.1764,6.3931
3.1769,-1.8472
3.1774,-11.3082
3.1779,-11.6134
3.1784,-3.0680
3.1789,4.5619
3.1794,6.6983
3.1799,5.7827
3.1804,5.7827
3.1809,5.1723
3.1814,1.2048
3.1819,-3.9835
3.1824,-6.7303
3.1829,-4.2887
3.1834,-0.0160
3.1839,3.0359
3.1844,3.3411
3.1849,2.7307
3.1854,2.4255
3.1859,0.5944
3.1864,-5.2043
3.1869,-12.5290
3.1874,-15.5809
3.1879,-13.4446
3.1884,-11.6134
3.1889,-14.9705
3.1894,-22.2952
3.1899,-28.7043
3.1904,-32.6718
3.1909,-33.2822
3.1914,-26.5679
3.1919,-10.3926
3.1924,8.2242
3.1929,21.3476
3.1934,29.8930
3.1939,41.4904
3.1944,56.4450
3.1949,64.3800
3.1954,59.8021
3.1959,47.8995
3.1964,36.9125
3.1969,27.7567
3.1974,17.6853
3.1979,8.2242
3.1984,3.3411
3.1989,2.4255
3.1994,2.1203
3.1999,0.8996
3.2004,-0.0160
3.2009,-1.5420
3.2014,-2.7628
3.2019,-3.9835
3.2024,-3.9835
3.2029,-3.3732
3.2034,-3.6783
3.2039,-4.5939
3.2044,-5.2043
3.2049,-4.2887
3.2054,-1.5420
3.2059,0.5944
3.2064,-0.0160
3.2069,-4.8991
3.2074,-10.0874
3.2079,-11.9186
3.2084,-10.3926
3.2089,-9.1718
3.2094,-9.1718
3.2099,-9.4770
3.2104,-9.7822
3.2109,-11.0030
3.2114,-10.6978
3.2119,-4.5939
3.2124,5.1723
3.2129,11.2762
3.2134,8.2242
3.2139,-0.3212
3.2144,-9.1718
3.2149,-14.9705
3.2154,-17.1069
3.2159,-16.1913
3.2164,-13.4446
3.2169,-12.5290
3.2174,-14.3602
3.2179,-16.4965
3.2184,-16.4965
3.2189,-15.5809
3.2194,-14.9705
3.2199,-14.3602
3.2204,-14.3602
3.2209,-16.4965
3.2214,-18.9381
3.2219,-16.8017
3.2224,-10.3926
3.2229,-5.8147
3.2234,-5.5095
3.2239,-3.6783
3.2244,4.8671
3.2249,17.3801
3.2254,24.0943
3.2259,21.6528
3.2264,14.6333
3.2269,9.4450
3.2274,8.2242
3.2279,8.8346
3.2284,8.5294
3.2289,7.9190
3.2294,12.8022
3.2299,25.0099
3.2304,36.6073
3.2309,37.5229
3.2314,28.9775
3.2319,19.8216
3.2324,13.7177
3.2329,7.0035
3.2334,1.5100
3.2339,3.3411
3.2344,10.0554
3.2349,9.4450
3.2354,-2.4576
3.2359,-17.4121
3.2364,-25.6523
3.2369,-26.8731
3.2374,-23.2108
3.2379,-14.3602
3.2384,-3.6783
3.2389,1.5100
3.2394,6.6983
3.2399,25.0099
3.2404,53.0878
3.2409,66.5164
3.2414,50.9515
3.2419,24.0943
3.2424,12.8022
3.2429,18.2956
3.2434,21.0424
3.2439,13.1073
3.2444,5.1723
3.2449,4.8671
3.2454,6.0879
3.2459,2.4255
3.2464,-2.7628
3.2469,-4.5939
3.2474,-3.9835
3.2479,-4.5939
3.2484,-5.2043
3.2489,-3.3732
3.2494,-0.6264
3.2499,-1.2368
3.2504,-5.2043
3.2509,-10.0874
3.2514,-12.8342
3.2519,-13.4446
3.2524,-12.8342
3.2529,-10.3926
3.2534,-6.4251
3.2539,-2.1524
3.2544,-0.9316
3.2549,-5.5095
3.2554,-13.4446
3.2559,-20.1588
3.2564,-23.2108
3.2569,-23.8212
3.2574,-24.4316
3.2579,-24.4316
3.2584,-24.7368
3.2589,-26.8731
3.2594,-30.5355
3.2599,-30.5355
3.2604,-23.8212
3.2609,-13.4446
3.2614,-6.1199
3.2619,-2.4576
3.2624,3.9515
3.2629,19.5164
3.2634,38.7437
3.2639,47.2891
3.2644,37.8281
3.2649,17.6853
3.2654,1.8152
3.2659,-3.0680
3.2664,-2.7628
3.2669,-3.3732
3.2674,-5.8147
3.2679,-6.7303
3.2684,-5.2043
3.2689,-4.5939
3.2694,-5.2043
3.2699,-5.8147
3.2704,-6.1199
3.2709,-7.0355
3.2714,-9.1718
3.2719,-10.6978
3.2724,-11.6134
3.2729,-11.9186
3.2734,-11.9186
3.2739,-9.7822
3.2744,-5.8147
3.2749,-2.1524
3.2754,-1.2368
3.2759,-3.9835
3.2764,-9.1718
3.2769,-14.0550
3.2774,-16.1913
3.2779,-16.4965
3.2784,-18.6329
3.2789,-24.1264
3.2794,-29.9251
3.2799,-31.1458
3.2804,-26.8731
3.2809,-19.8537
3.2814,-13.7498
3.2819,-9.7822
3.2824,-8.2563
3.2829,-6.4251
3.2834,-0.0160
3.2839,11.5814
3.2844,19.5164
3.2849,15.2437
3.2854,1.8152
3.2859,-7.3407
3.2864,-4.2887
3.2869,3.3411
3.2874,4.5619
3.2879,-1.8472
3.2884,-7.3407
3.2889,-3.6783
3.2894,9.4450
3.2899,28.9775
3.2904,48.8151
3.2909,60.1073
3.2914,57.6657
3.2919,43.6268
3.2924,28.3671
3.2929,18.6008
3.2934,15.5489
3.2939,17.6853
3.2944,23.7891
3.2949,28.6723
3.2954,26.8411
3.2959,18.2956
3.2964,9.4450
3.2969,4.8671
3.2974,2.1203
3.2979,-1.8472
3.2984,-5.8147
3.2989,-6.1199
3.2994,-4.5939
3.2999,-6.1199
3.3004,-11.0030
3.3009,-14.9705
3.3014,-13.1394
3.3019,-4.8991
3.3024,6.6983
3.3029,16.1593
3.3034,18.2956
3.3039,13.7177
3.3044,9.7502
3.3049,12.1918
3.3054,17.0749
3.3059,16.7697
3.3064,9.4450
3.3069,1.8152
3.3074,-0.9316
3.3079,-2.4576
3.3084,-3.6783
3.3089,-3.0680
3.3094,-0.0160
3.3099,2.1203
3.3104,-0.0160
3.3109,-3.6783
3.3114,-5.5095
3.3119,-7.3407
3.3124,-11.9186
3.3129,-16.8017
3.3134,-17.4121
3.3139,-14.0550
3.3144,-11.0030
3.3149,-7.3407
3.3154,0.2892
3.3159,10.3606
3.3164,14.6333
3.3169,8.2242
3.3174,-1.2368
3.3179,-4.8991
3.3184,-0.6264
3.3189,3.0359
3.3194,1.5100
3.3199,-2.7628
3.3204,-5.5095
3.3209,-5.5095
3.3214,-5.5095
3.3219,-7.6459
3.3224,-10.3926
3.3229,-11.6134
3.3234,-10.3926
3.3239,-7.6459
3.3244,-4.5939
3.3249,-2.7628
3.3254,-3.0680
3.3259,-4.5939
3.3264,-6.1199
3.3269,-6.4251
3.3274,-6.4251
3.3279,-6.4251
3.3284,-6.1199
3.3289,-4.8991
3.3294,-4.2887
3.3299,-5.2043
3.3304,-7.0355
3.3309,-8.2563
3.3314,-9.1718
3.3319,-9.7822
3.3324,-9.4770
3.3329,-7.6459
3.3334,-5.8147
3.3339,-6.1199
3.3344,-7.3407
3.3349,-8.2563
3.3354,-8.5615
3.3359,-9.4770
3.3364,-10.0874
3.3369,-8.8667
3.3374,-7.0355
3.3379,-6.4251
3.3384,-6.7303
3.3389,-7.6459
3.3394,-9.1718
3.3399,-11.9186
3.3404,-13.7498
3.3409,-13.1394
3.3414,-12.5290
3.3419,-14.3602
3.3424,-17.1069
3.3429,-18.3277
3.3434,-19.2433
3.3439,-22.9056
3.3444,-28.3991
3.3449,-31.1458
3.3454,-28.0939
3.3459,-21.0744
3.3464,-13.4446
3.3469,-8.2563
3.3474,-7.0355
3.3479,-5.5095
3.3484,6.3931
3.3489,34.4710
3.3494,68.6527
3.3499,90.0163
3.3504,88.1852
3.3509,68.6527
3.3514,41.7956
3.3519,15.5489
3.3524,-4.8991
3.3529,-13.1394
3.3534,-8.2563
3.3539,0.5944
3.3544,3.3411
3.3549,-1.2368
3.3554,-6.1199
3.3559,-7.3407
3.3564,-6.1199
3.3569,-5.8147
3.3574,-5.8147
3.3579,-5.5095
3.3584,-5.8147
3.3589,-6.7303
3.3594,-4.8991
3.3599,0.2892
3.3604,6.3931
3.3609,9.4450
3.3614,7.6138
3.3619,3.0359
3.3624,-2.4576
3.3629,-6.1199
3.3634,-7.0355
3.3639,-7.6459
3.3644,-10.6978
3.3649,-13.7498
3.3654,-13.1394
3.3659,-9.1718
3.3664,-4.5939
3.3669,1.8152
3.3674,16.1593
3.3679,34.1658
3.3684,43.3216
3.3689,37.8281
3.3694,28.0619
3.3699,26.2307
3.3704,32.3346
3.3709,35.9969
3.3714,31.1138
3.3719,21.3476
3.3724,11.5814
3.3729,5.1723
3.3734,3.9515
3.3739,6.6983
3.3744,6.6983
3.3749,0.2892
3.3754,-7.3407
3.3759,-11.3082
3.3764,-12.2238
3.3769,-14.3602
3.3774,-16.1913
3.3779,-12.8342
3.3784,-5.5095
3.3789,0.8996
3.3794,6.0879
3.3799,11.2762
3.3804,13.7177
3.3809,8.5294
3.3814,-1.8472
3.3819,-11.0030
3.3824,-14.0550
3.3829,-14.9705
3.3834,-15.5809
3.3839,-15.8861
3.3844,-17.1069
3.3849,-20.1588
3.3854,-23.2108
3.3859,-23.5160
3.3864,-19.5485
3.3869,-12.5290
3.3874,-2.4576
3.3879,7.9190
3.3884,12.4970
3.3889,7.3087
3.3894,-3.3732
3.3899,-14.0550
3.3904,-23.8212
3.3909,-32.9770
3.3914,-37.2497
3.3919,-37.8601
3.3924,-40.9121
3.3929,-45.7952
3.3934,-33.2822
3.3939,6.3931
3.3944,54.3086
3.3949,77.8086
3.3954,71.7047
3.3959,59.1917
3.3964,53.6982
3.3969,45.1528
3.3974,25.0099
3.3979,4.5619
3.3984,-0.6264
3.3989,6.3931
3.3994,14.0229
3.3999,16.7697
3.4004,16.1593
3.4009,11.8866
3.4014,4.2567
3.4019,-2.4576
3.4024,-7.0355
3.4029,-12.2238
3.4034,-18.6329
3.4039,-21.6848
3.4044,-21.3796
3.4049,-24.1264
3.4054,-31.1458
3.4059,-32.9770
3.4064,-23.5160
3.4069,-10.3926
3.4074,-5.5095
3.4079,-7.3407
3.4084,-7.6459
3.4089,-0.9316
3.4094,12.8022
3.4099,34.4710
3.4104,57.3605
3.4109,64.9904
3.4114,48.8151
3.4119,23.1788
3.4124,12.8022
3.4129,22.8736
3.4134,35.0813
3.4139,32.0294
3.4144,16.4645
3.4149,-0.0160
3.4154,-10.3926
3.4159,-14.9705
3.4164,-14.9705
3.4169,-12.2238
3.4174,-9.4770
3.4179,-8.8667
3.4184,-8.5615
3.4189,-7.6459
3.4194,-6.7303
3.4199,-7.6459
3.4204,-9.7822
3.4209,-11.6134
3.4214,-11.9186
3.4219,-11.0030
3.4224,-10.0874
3.4229,-10.0874
3.4234,-11.3082
3.4239,-12.2238
3.4244,-11.0030
3.4249,-9.4770
3.4254,-9.4770
3.4259,-10.6978
3.4264,-11.0030
3.4269,-10.6978
3.4274,-11.3082
3.4279,-13.1394
3.4284,-14.3602
3.4289,-13.7498
3.4294,-13.1394
3.4299,-14.0550
3.4304,-15.5809
3.4309,-16.1913
3.4314,-15.8861
3.4319,-15.8861
3.4324,-16.1913
3.4329,-15.8861
3.4334,-14.3602
3.4339,-12.2238
3.4344,-9.7822
3.4349,-6.7303
3.4354,-3.3732
3.4359,-0.6264
3.4364,-0.0160
3.4369,-1.2368
3.4374,-3.0680
3.4379,-3.0680
3.4384,-0.0160
3.4389,4.8671
3.4394,8.2242
3.4399,8.8346
3.4404,7.9190
3.4409,7.3087
3.4414,6.6983
3.4419,5.4775
3.4424,2.7307
3.4429,-0.3212
3.4434,-2.1524
3.4439,-1.8472
3.4444,0.2892
3.4449,1.8152
3.4454,0.8996
3.4459,-1.8472
3.4464,-3.9835
3.4469,-3.9835
3.4474,-2.7628
3.4479,-2.1524
3.4484,-2.4576
3.4489,-3.0680
3.4494,-3.3732
3.4499,-3.0680
3.4504,-2.1524
3.4509,-0.9316
3.4514,-0.0160
3.4519,-0.3212
3.4524,-1.5420
3.4529,-1.2368
3.4534,0.2892
3.4539,1.5100
3.4544,-0.6264
3.4549,-5.8147
3.4554,-9.1718
3.4559,-8.5615
3.4564,-3.6783
3.4569,2.7307
3.4574,8.8346
3.4579,11.5814
3.4584,10.0554
3.4589,6.6983
3.4594,3.0359
3.4599,0.2892
3.4604,-2.1524
3.4609,-3.0680
3.4614,0.2892
3.4619,7.3087
3.4624,12.4970
3.4629,12.4970
3.4634,7.3087
3.4639,0.2892
3.4644,-6.1199
3.4649,-9.7822
3.4654,-8.2563
3.4659,-1.5420
3.4664,3.3411
3.4669,1.5100
3.4674,-6.1199
3.4679,-12.2238
3.4684,-10.6978
3.4689,-3.6783
3.4694,2.4255
3.4699,5.7827
3.4704,7.6138
3.4709,9.4450
3.4714,10.0554
3.4719,8.2242
3.4724,4.5619
3.4729,3.3411
3.4734,9.1398
3.4739,19.2112
3.4744,25.0099
3.4749,20.4320
3.4754,9.1398
3.4759,-0.0160
3.4764,-2.7628
3.4769,-2.7628
3.4774,-3.0680
3.4779,-3.6783
3.4784,-2.7628
3.4789,-1.8472
3.4794,-2.1524
3.4799,-4.2887
3.4804,-6.7303
3.4809,-7.3407
3.4814,-4.8991
3.4819,-0.0160
3.4824,2.4255
3.4829,-0.6264
3.4834,-7.0355
3.4839,-9.4770
3.4844,-6.7303
3.4849,-4.8991
3.4854,-8.2563
3.4859,-14.0550
3.4864,-16.8017
3.4869,-19.2433
3.4874,-27.7887
3.4879,-40.3017
3.4884,-47.3211
3.4889,-42.1328
3.4894,-26.8731
3.4899,-9.1718
3.4904,3.6463
3.4909,11.2762
3.4914,19.5164
3.4919,37.8281
3.4924,64.0748
3.4929,81.4709
3.4934,71.0943
3.4939,39.6593
3.4944,16.1593
3.4949,23.4840
3.4954,53.6982
3.4959,76.2826
3.4964,71.7047
3.4969,47.5943
3.4974,24.0943
3.4979,11.5814
3.4984,6.6983
3.4989,2.7307
3.4994,-0.9316
3.4999,-2.7628
3.5004,-3.3732
3.5009,-5.8147
3.5014,-9.4770
3.5019,-10.3926
3.5024,-8.2563
3.5029,-7.6459
3.5034,-11.6134
3.5039,-16.1913
3.5044,-17.4121
3.5049,-17.7173
3.5054,-20.1588
3.5059,-22.2952
3.5064,-18.6329
3.5069,-10.0874
3.5074,-3.9835
3.5079,-3.6783
3.5084,-6.4251
3.5089,-8.8667
3.5094,-11.0030
3.5099,-13.1394
3.5104,-11.0030
3.5109,-2.1524
3.5114,9.1398
3.5119,17.3801
3.5124,19.5164
3.5129,16.4645
3.5134,10.9710
3.5139,5.1723
3.5144,1.5100
3.5149,-0.0160
3.5154,-0.0160
3.5159,-0.3212
3.5164,-0.3212
3.5169,-0.3212
3.5174,-1.5420
3.5179,-4.2887
3.5184,-7.3407
3.5189,-10.3926
3.5194,-13.7498
3.5199,-15.8861
3.5204,-14.0550
3.5209,-8.8667
3.5214,-3.9835
3.5219,-2.4576
3.5224,-2.4576
3.5229,-2.1524
3.5234,-0.9316
3.5239,-1.2368
3.5244,-3.0680
3.5249,-4.2887
3.5254,-2.7628
3.5259,-0.3212
3.5264,0.2892
3.5269,-0.9316
3.5274,-2.7628
3.5279,-3.9835
3.5284,-4.8991
3.5289,-5.8147
3.5294,-7.0355
3.5299,-7.6459
3.5304,-8.2563
3.5309,-8.8667
3.5314,-10.3926
3.5319,-12.5290
3.5324,-13.7498
3.5329,-12.5290
3.5334,-9.1718
3.5339,-6.1199
3.5344,-4.5939
3.5349,-3.9835
3.5354,-2.7628
3.5359,-0.0160
3.5364,1.8152
3.5369,1.5100
3.5374,-0.3212
3.5379,-2.7628
3.5384,-3.9835
3.5389,-4.2887
3.5394,-4.2887
3.5399,-4.2887
3.5404,-4.2887
3.5409,-3.9835
3.5414,-3.0680
3.5419,-3.0680
3.5424,-4.8991
3.5429,-7.9511
3.5434,-11.0030
3.5439,-12.8342
3.5444,-12.5290
3.5449,-9.7822
3.5454,-7.6459
3.5459,-7.6459
3.5464,-8.5615
3.5469,-7.0355
3.5474,-0.6264
3.5479,6.3931
3.5484,10.0554
3.5489,10.0554
3.5494,8.5294
3.5499,7.3087
3.5504,7.0035
3.5509,9.1398
3.5514,13.4125
3.5519,14.0229
3.5524,7.3087
3.5529,-0.9316
3.5534,-2.1524
3.5539,3.9515
3.5544,8.5294
3.5549,4.2567
3.5554,-3.6783
3.5559,-5.5095
3.5564,2.1203
3.5569,13.1073
3.5574,18.9060
3.5579,17.6853
3.5584,14.6333
3.5589,14.0229
3.5594,14.3281
3.5599,10.9710
3.5604,2.7307
3.5609,-4.5939
3.5614,-7.9511
3.5619,-7.0355
3.5624,-5.2043
3.5629,-3.0680
3.5634,-0.6264
3.5639,1.2048
3.5644,2.1203
3.5649,2.4255
3.5654,1.2048
3.5659,-2.1524
3.5664,-7.6459
3.5669,-10.6978
3.5674,-9.7822
3.5679,-7.6459
3.5684,-7.3407
3.5689,-7.9511
3.5694,-6.7303
3.5699,-3.0680
3.5704,1.2048
3.5709,5.7827
3.5714,8.2242
3.5719,7.0035
3.5724,3.3411
3.5729,-0.6264
3.5734,-4.5939
3.5739,-9.7822
3.5744,-14.3602
3.5749,-13.1394
3.5754,-7.3407
3.5759,-2.1524
3.5764,0.5944
3.5769,8.2242
3.5774,21.6528
3.5779,31.7242
3.5784,28.9775
3.5789,17.3801
3.5794,8.5294
3.5799,6.0879
3.5804,3.6463
3.5809,-0.6264
3.5814,-1.5420
3.5819,4.2567
3.5824,10.9710
3.5829,12.4970
3.5834,9.7502
3.5839,8.2242
3.5844,6.6983
3.5849,2.4255
3.5854,-2.7628
3.5859,-4.5939
3.5864,-2.1524
3.5869,-0.0160
3.5874,-0.0160
3.5879,-0.6264
3.5884,-0.3212
3.5889,-0.0160
3.5894,-0.3212
3.5899,-1.8472
3.5904,-3.6783
3.5909,-4.5939
3.5914,-3.0680
3.5919,-0.6264
3.5924,-0.6264
3.5929,-2.7628
3.5934,-4.8991
3.5939,-3.6783
3.5944,-2.1524
3.5949,-2.7628
3.5954,-5.2043
3.5959,-5.2043
3.5964,-2.7628
3.5969,-1.2368
3.5974,-2.1524
3.5979,-3.0680
3.5984,-3.0680
3.5989,-2.7628
3.5994,-2.4576
3.5999,-1.2368
3.6004,-0.0160
3.6009,-1.2368
3.6014,-4.2887
3.6019,-5.8147
3.6024,-5.8147
3.6029,-7.6459
3.6034,-11.3082
3.6039,-14.3602
3.6044,-14.0550
3.6049,-12.5290
3.6054,-10.3926
3.6059,-7.0355
3.6064,-2.7628
3.6069,-1.8472
3.6074,-4.8991
3.6079,-7.0355
3.6084,-2.7628
3.6089,3.9515
3.6094,8.2242
3.6099,7.9190
3.6104,7.6138
3.6109,9.1398
3.6114,10.3606
3.6119,10.3606
3.6124,9.4450
3.6129,7.6138
3.6134,5.4775
3.6139,3.3411
3.6144,2.7307
3.6149,2.7307
3.6154,2.4255
3.6159,2.7307
3.6164,2.1203
3.6169,-1.2368
3.6174,-7.0355
3.6179,-8.8667
3.6184,-2.7628
3.6189,6.3931
3.6194,11.5814
3.6199,11.2762
3.6204,10.0554
3.6209,9.7502
3.6214,8.2242
3.6219,6.0879
3.6224,6.6983
3.6229,9.1398
3.6234,9.1398
3.6239,5.1723
3.6244,1.5100
3.6249,0.2892
3.6254,0.8996
3.6259,1.2048
3.6264,1.8152
3.6269,1.5100
3.6274,-0.0160
3.6279,-1.8472
3.6284,-2.7628
3.6289,-3.3732
3.6294,-4.5939
3.6299,-5.8147
3.6304,-6.1199
3.6309,-7.0355
3.6314,-10.0874
3.6319,-13.4446
3.6324,-16.1913
3.6329,-19.5485
3.6334,-24.1264
3.6339,-26.8731
3.6344,-27.1783
3.6349,-28.3991
3.6354,-33.2822
3.6359,-37.8601
3.6364,-38.1653
3.6369,-35.7238
3.6374,-33.5874
3.6379,-29.9251
3.6384,-25.3472
3.6389,-22.6004
3.6394,-19.2433
3.6399,-5.2043
3.6404,19.2112
3.6409,39.6593
3.6414,43.3216
3.6419,39.6593
3.6424,43.9320
3.6429,55.2242
3.6434,59.4969
3.6439,52.4774
3.6444,45.4580
3.6449,42.4060
3.6454,36.3021
3.6459,23.7891
3.6464,11.5814
3.6469,5.7827
3.6474,3.3411
3.6479,-1.2368
3.6484,-5.8147
3.6489,-4.2887
3.6494,3.9515
3.6499,14.6333
3.6504,23.4840
3.6509,28.3671
3.6514,29.2826
3.6519,27.7567
3.6524,25.3151
3.6529,21.6528
3.6534,16.7697
3.6539,11.8866
3.6544,9.1398
3.6549,7.6138
3.6554,4.5619
3.6558,-0.0160
3.6563,-5.5095
3.6568,-10.0874
3.6573,-12.2238
3.6578,-11.6134
3.6583,-10.0874
3.6588,-10.0874
3.6593,-12.2238
3.6598,-13.1394
3.6603,-11.0030
3.6608,-9.7822
3.6613,-12.8342
3.6618,-18.6329
3.6623,-19.5485
3.6628,-12.8342
3.6633,-3.9835
3.6638,-1.2368
3.6643,-8.2563
3.6648,-19.8537
3.6653,-28.3991
3.6658,-30.5355
3.6663,-28.7043
3.6668,-25.9575
3.6673,-20.7692
3.6678,-13.1394
3.6683,-6.1199
3.6688,-2.1524
3.6693,-0.0160
3.6698,3.9515
3.6703,7.3087
3.6708,6.3931
3.6713,3.6463
3.6718,3.9515
3.6723,7.6138
3.6728,9.7502
3.6733,6.3931
3.6738,1.2048
3.6743,-0.9316
3.6748,-1.5420
3.6753,-3.0680
3.6758,-5.5095
3.6763,-5.5095
3.6768,-1.5420
3.6773,3.0359
3.6778,4.8671
3.6783,3.0359
3.6788,0.2892
3.6793,-0.9316
3.6798,-1.2368
3.6803,-2.1524
3.6808,-4.8991
3.6813,-7.3407
3.6818,-8.8667
3.6823,-9.7822
3.6828,-11.0030
3.6833,-11.6134
3.6838,-10.3926
3.6843,-8.8667
3.6848,-9.1718
3.6853,-10.3926
3.6858,-11.3082
3.6863,-11.0030
3.6868,-9.7822
3.6873,-8.2563
3.6878,-5.8147
3.6883,-4.2887
3.6888,-3.6783
3.6893,-2.4576
3.6898,-0.6264
3.6903,-0.6264
3.6908,-3.6783
3.6913,-6.7303
3.6918,-7.3407
3.6923,-6.4251
3.6928,-6.7303
3.6933,-7.3407
3.6938,-5.8147
3.6943,-2.1524
3.6948,-0.0160
3.6953,-0.0160
3.6958,1.2048
3.6963,3.3411
3.6968,3.6463
3.6973,1.2048
3.6978,-0.3212
3.6983,0.5944
3.6988,2.7307
3.6993,3.0359
3.6998,1.5100
3.7003,0.5944
3.7008,1.2048
3.7013,1.8152
3.7018,1.5100
3.7023,-0.0160
3.7028,-0.9316
3.7033,-0.3212
3.7038,1.8152
3.7043,4.5619
3.7048,5.4775
3.7053,4.8671
3.7058,4.5619
3.7063,4.8671
3.7068,5.4775
3.7073,5.1723
3.7078,4.8671
3.7083,6.0879
3.7088,9.4450
3.7093,11.5814
3.7098,9.4450
3.7103,3.6463
3.7108,-0.3212
3.7113,1.8152
3.7118,7.6138
3.7123,10.9710
3.7128,9.4450
3.7133,7.6138
3.7138,8.2242
3.7143,10.3606
3.7148,11.2762
3.7153,10.9710
3.7158,9.4450
3.7163,6.6983
3.7168,3.3411
3.7173,4.2567
3.7178,10.3606
3.7183,17.6853
3.7188,23.1788
3.7193,28.3671
3.7198,32.6398
3.7203,28.3671
3.7208,7.6138
3.7213,-21.9900
3.7218,-43.0484
3.7223,-46.4056
3.7228,-39.9965
3.7233,-38.1653
3.7238,-44.5744
3.7243,-53.1198
3.7248,-56.1718
3.7253,-47.3211
3.7258,-25.6523
3.7263,0.5944
3.7268,14.9385
3.7273,8.5294
3.7278,-5.8147
3.7283,-7.6459
3.7288,7.9190
3.7293,26.2307
3.7298,33.2502
3.7303,33.2502
3.7308,36.6073
3.7313,44.5424
3.7318,50.0359
3.7323,50.9515
3.7328,54.0034
3.7333,65.9060
3.7338,82.3865
3.7343,90.0163
3.7348,79.6397
3.7353,58.5813
3.7358,40.8800
3.7363,27.4515
3.7368,4.2567
3.7373,-33.8926
3.7378,-75.0938
3.7383,-104.0873
3.7388,-121.4834
3.7393,-132.7756
3.7398,-129.1132
3.7403,-101.9509
3.7408,-64.4120
3.7413,-41.8276
3.7418,-39.9965
3.7423,-41.2173
3.7428,-26.8731
3.7433,2.4255
3.7438,38.4385
3.7443,68.6527
3.7448,80.8605
3.7453,69.8735
3.7458,48.5099
3.7463,40.8800
3.7468,57.0553
3.7473,84.2176
3.7478,101.0033
3.7483,95.5098
3.7488,74.1462
3.7493,54.6138
3.7498,45.1528
3.7503,27.1463
3.7508,-28.3991
3.7513,-115.9899
3.7518,-185.2690
3.7523,-193.8145
3.7528,-155.9704
3.7533,-119.6522
3.7538,-103.7821
3.7543,-86.3860
3.7548,-51.5939
3.7553,-16.8017
3.7558,-7.9511
3.7563,-23.5160
3.7568,-40.6069
3.7573,-39.9965
3.7578,-22.6004
3.7583,-1.2368
3.7588,9.4450
3.7593,5.7827
3.7598,-3.3732
3.7603,-5.2043
3.7608,3.3411
3.7613,15.8541
3.7618,24.7047
3.7623,25.9255
3.7628,19.2112
3.7633,5.7827
3.7638,-6.7303
3.7643,-11.0030
3.7648,-4.8991
3.7653,6.6983
3.7658,19.8216
3.7663,32.6398
3.7668,43.9320
3.7673,52.7826
3.7678,59.8021
3.7683,63.1592
3.7688,58.5813
3.7693,45.4580
3.7698,31.7242
3.7703,26.2307
3.7708,28.3671
3.7713,29.2826
3.7718,25.0099
3.7723,19.5164
3.7728,17.0749
3.7733,16.4645
3.7738,15.5489
3.7743,13.7177
3.7748,12.4970
3.7753,12.1918
3.7758,11.8866
3.7763,8.2242
3.7768,1.2048
3.7773,-4.2887
3.7778,-0.6264
3.7783,12.4970
3.7788,25.9255
3.7793,28.9775
3.7798,25.6203
3.7803,27.7567
3.7808,38.7437
3.7813,48.5099
3.7818,48.5099
3.7823,39.9645
3.7828,27.7567
3.7833,14.9385
3.7838,3.0359
3.7843,-4.8991
3.7848,-11.0030
3.7853,-18.6329
3.7858,-25.3472
3.7863,-24.1264
3.7868,-15.2757
3.7873,-7.0355
3.7878,-4.5939
3.7883,-1.2368
3.7888,7.6138
3.7893,18.9060
3.7898,25.0099
3.7903,26.2307
3.7908,25.6203
3.7913,25.0099
3.7918,25.9255
3.7923,33.8606
3.7928,48.5099
3.7933,60.4125
3.7938,58.5813
3.7943,41.7956
3.7948,15.8541
3.7953,-10.3926
3.7958,-29.3147
3.7963,-33.2822
3.7968,-25.0420
3.7973,-15.2757
3.7978,-10.6978
3.7983,-8.2563
3.7988,-4.5939
3.7993,-4.5939
3.7998,-9.4770
3.8003,-9.1718
3.8008,3.9515
3.8013,21.3476
3.8018,26.8411
3.8023,15.8541
3.8028,-1.8472
3.8033,-18.0225
3.8038,-29.0095
3.8043,-32.6718
3.8048,-27.4835
3.8053,-17.4121
3.8058,-10.6978
3.8063,-10.3926
3.8068,-12.8342
3.8073,-13.7498
3.8078,-13.1394
3.8083,-12.2238
3.8088,-11.3082
3.8093,-11.9186
3.8098,-14.6653
3.8103,-17.1069
3.8108,-16.4965
3.8113,-14.3602
3.8118,-13.1394
3.8123,-11.3082
3.8128,-8.5615
3.8133,-9.1718
3.8138,-18.0225
3.8143,-29.6199
3.8148,-34.5030
3.8153,-30.8406
3.8158,-25.0420
3.8163,-22.6004
3.8168,-21.3796
3.8173,-18.0225
3.8178,-14.3602
3.8183,-13.1394
3.8188,-13.7498
3.8193,-14.3602
3.8198,-15.8861
3.8203,-20.4640
3.8208,-25.0420
3.8213,-24.4316
3.8218,-18.3277
3.8223,-11.6134
3.8228,-9.4770
3.8233,-10.3926
3.8238,-11.6134
3.8243,-11.6134
3.8248,-11.6134
3.8253,-11.9186
3.8258,-11.9186
3.8263,-11.0030
3.8268,-9.7822
3.8273,-8.8667
3.8278,-9.4770
3.8283,-10.6978
3.8288,-9.4770
3.8293,-3.0680
3.8298,6.6983
3.8303,13.4125
3.8308,12.1918
3.8313,6.3931
3.8318,2.7307
3.8323,3.3411
3.8328,4.5619
3.8333,4.5619
3.8338,4.5619
3.8343,5.1723
3.8348,5.1723
3.8353,4.5619
3.8358,5.1723
3.8363,7.9190
3.8368,12.1918
3.8373,17.0749
3.8378,21.0424
3.8383,22.2632
3.8388,21.3476
3.8393,20.4320
3.8398,18.6008
3.8403,11.8866
3.8408,0.5944
3.8413,-5.8147
3.8418,-3.6783
3.8423,-4.2887
3.8428,-21.6848
3.8433,-49.7627
3.8438,-63.8016
3.8443,-51.2887
3.8448,-28.0939
3.8453,-17.1069
3.8458,-18.0225
3.8463,-16.1913
3.8468,-7.0355
3.8473,-0.0160
3.8478,1.2048
3.8483,5.7827
3.8488,15.8541
3.8493,20.7372
3.8498,11.8866
3.8503,-6.1199
3.8508,-21.3796
3.8513,-27.7887
3.8518,-24.4316
3.8523,-13.4446
3.8528,-0.0160
3.8533,6.6983
3.8538,3.9515
3.8543,-4.2887
3.8548,-16.1913
3.8553,-32.0614
3.8558,-45.4900
3.8563,-42.7432
3.8568,-21.3796
3.8573,4.8671
3.8578,25.6203
3.8583,43.3216
3.8588,57.9709
3.8593,56.7501
3.8598,36.6073
3.8603,22.2632
3.8608,35.3865
3.8613,59.1917
3.8618,61.3281
3.8623,37.5229
3.8628,8.5294
3.8633,-19.8537
3.8638,-60.1393
3.8643,-102.2561
3.8648,-113.2431
3.8653,-83.9445
3.8658,-44.8796
3.8663,-22.6004
3.8668,-11.3082
3.8673,2.7307
3.8678,10.9710
3.8683,0.5944
3.8688,-14.9705
3.8693,-14.0550
3.8698,1.8152
3.8703,13.7177
3.8708,15.2437
3.8713,16.4645
3.8718,22.2632
3.8723,26.5359
3.8728,26.5359
3.8733,27.4515
3.8738,30.1982
3.8743,26.5359
3.8748,12.4970
3.8753,-3.3732
3.8758,-9.1718
3.8763,-2.4576
3.8768,7.0035
3.8773,8.5294
3.8778,-0.0160
3.8783,-11.9186
3.8788,-20.4640
3.8793,-25.0420
3.8798,-27.4835
3.8803,-25.6523
3.8808,-16.1913
3.8813,-1.8472
3.8818,10.0554
3.8823,16.7697
3.8828,21.9580
3.8833,28.6723
3.8838,33.8606
3.8843,34.7761
3.8848,33.5554
3.8853,38.1333
3.8858,51.5618
3.8863,68.0423
3.8868,80.2501
3.8873,87.2696
3.8878,89.7111
3.8883,79.6397
3.8888,49.1203
3.8893,10.3606
3.8898,-8.2563
3.8903,0.2892
3.8908,8.2242
3.8913,-15.5809
3.8918,-58.6133
3.8923,-76.3146
3.8928,-49.1523
3.8933,-7.3407
3.8938,11.5814
3.8943,7.0035
3.8948,4.5619
3.8953,16.4645
3.8958,25.6203
3.8963,8.5294
3.8968,-35.4186
3.8973,-80.5873
3.8978,-95.5419
3.8983,-74.7886
3.8988,-43.6588
3.8993,-34.1978
3.8998,-52.5095
3.9003,-75.3990
3.9008,-79.6718
3.9013,-61.3601
3.9018,-34.1978
3.9023,-13.1394
3.9028,-2.1524
3.9033,6.0879
3.9038,21.6528
3.9043,40.5748
3.9048,49.1203
3.9053,43.3216
3.9058,37.2177
3.9063,46.3735
3.9068,70.4839
3.9073,100.0878
3.9078,126.6397
3.9083,143.7306
3.9088,148.9189
3.9093,149.5292
3.9098,155.9383
3.9103,158.6851
3.9108,134.8799
3.9113,88.1852
3.9118,52.4774
3.9123,34.4710
3.9128,-14.0550
3.9133,-128.1977
3.9138,-251.4962
3.9143,-287.2040
3.9148,-220.9768
3.9153,-141.3210
3.9158,-125.7561
3.9163,-155.6652
3.9168,-166.0418
3.9173,-136.7431
3.9178,-96.4574
3.9183,-66.8536
3.9188,-42.1328
3.9193,-18.9381
3.9198,-5.5095
3.9203,-3.3732
3.9208,-1.8472
3.9213,4.5619
3.9218,10.6658
3.9223,12.8022
3.9228,15.2437
3.9233,16.1593
3.9238,6.6983
3.9243,-13.7498
3.9248,-31.7562
3.9253,-31.1458
3.9258,-12.5290
3.9263,8.8346
3.9268,22.2632
3.9273,28.3671
3.9278,33.5554
3.9283,41.1852
3.9288,48.5099
3.9293,52.4774
3.9298,51.8670
3.9303,47.2891
3.9308,40.5748
3.9313,34.7761
3.9318,33.8606
3.9323,36.6073
3.9328,40.2696
3.9333,41.7956
3.9338,41.7956
3.9343,39.9645
3.9348,36.9125
3.9353,34.4710
3.9358,33.2502
3.9363,33.8606
3.9368,35.6917
3.9373,41.7956
3.9378,53.6982
3.9383,64.9904
3.9388,65.6008
3.9393,53.6982
3.9398,37.8281
3.9403,26.2307
3.9408,19.8216
3.9413,16.4645
3.9418,15.5489
3.9423,14.9385
3.9428,11.5814
3.9433,8.5294
3.9438,11.5814
3.9443,19.8216
3.9448,25.9255
3.9453,25.0099
3.9458,23.1788
3.9463,25.3151
3.9468,29.2826
3.9473,32.3346
3.9478,36.9125
3.9483,42.7112
3.9488,43.6268
3.9493,37.5229
3.9498,33.5554
3.9503,37.5229
3.9508,39.0489
3.9513,28.0619
3.9518,14.0229
3.9523,14.3281
3.9528,24.7047
3.9533,25.3151
3.9538,9.7502
3.9543,-8.2563
3.9548,-24.4316
3.9553,-47.9315
3.9558,-79.6718
3.9563,-99.5094
3.9568,-91.5743
3.9573,-67.7692
3.9578,-50.9835
3.9583,-48.2367
