"type","name","time_units","begin_time","frequency","count","units"
"signal","","s",0.0000,2000.3556,146960,"uV"

"time","value"
0.0000,-6.4201
0.0005,-8.5564
0.0010,-10.9980
0.0015,-10.0824
0.0020,-5.5045
0.0025,-2.4525
0.0030,-3.0629
0.0035,-3.0629
0.0040,0.5994
0.0045,4.2617
0.0050,2.7358
0.0055,-2.1473
0.0060,-5.1993
0.0065,-4.5889
0.0070,-3.6733
0.0075,-2.7577
0.0080,-0.3162
0.0085,3.0410
0.0090,4.2617
0.0095,1.5150
0.0100,-2.4525
0.0105,-5.1993
0.0110,-6.1149
0.0115,-7.9460
0.0120,-11.9136
0.0125,-15.5759
0.0130,-17.1019
0.0135,-18.0175
0.0140,-21.9850
0.0145,-26.5629
0.0150,-25.3421
0.0155,-17.4071
0.0160,-11.3032
0.0165,-13.4395
0.0170,-19.5434
0.0175,-19.2382
0.0180,-11.6084
0.0185,-3.9785
0.0190,-1.2318
0.0195,-0.0110
0.0200,2.4306
0.0205,3.0410
0.0210,-0.0110
0.0215,-3.3681
0.0220,-3.0629
0.0225,1.5150
0.0230,8.8397
0.0235,15.2487
0.0240,17.3851
0.0245,14.3332
0.0250,9.7552
0.0255,10.0604
0.0260,14.9435
0.0265,17.9955
0.0270,14.9435
0.0275,7.9241
0.0280,0.9046
0.0285,-4.8941
0.0290,-10.0824
0.0295,-12.2188
0.0300,-10.0824
0.0305,-6.4201
0.0310,-5.1993
0.0315,-6.7253
0.0320,-9.1668
0.0325,-10.6928
0.0330,-11.3032
0.0335,-8.8616
0.0340,-3.0629
0.0345,3.9565
0.0350,11.2812
0.0355,17.9955
0.0360,23.1838
0.0365,25.0150
0.0370,23.4890
0.0375,22.8786
0.0380,26.5409
0.0385,33.2552
0.0390,38.1383
0.0395,38.7487
0.0400,36.6123
0.0405,34.4760
0.0410,31.7292
0.0415,25.0150
0.0420,13.4176
0.0425,0.5994
0.0430,-7.6408
0.0435,-9.4720
0.0440,-8.8616
0.0445,-10.6928
0.0450,-14.9655
0.0455,-18.3226
0.0460,-21.3746
0.0465,-26.5629
0.0470,-33.2772
0.0475,-34.4979
0.0480,-28.3941
0.0485,-21.9850
0.0490,-22.2902
0.0495,-23.5110
0.0500,-16.4915
0.0505,-1.8421
0.0510,8.8397
0.0515,7.9241
0.0520,-0.3162
0.0525,-4.8941
0.0530,-0.0110
0.0535,10.6708
0.0540,19.5215
0.0545,21.6578
0.0550,17.0799
0.0555,9.7552
0.0560,4.8721
0.0565,4.5669
0.0570,5.7877
0.0575,5.7877
0.0580,4.5669
0.0585,4.8721
0.0590,9.1449
0.0595,17.9955
0.0600,29.5929
0.0605,39.6643
0.0610,42.4110
0.0615,36.9175
0.0620,28.3721
0.0625,23.1838
0.0630,21.3526
0.0635,17.9955
0.0640,12.1968
0.0645,6.7033
0.0650,1.2098
0.0655,-7.9460
0.0660,-20.4590
0.0665,-28.3941
0.0670,-27.1733
0.0675,-22.2902
0.0680,-20.1538
0.0685,-18.9330
0.0690,-11.9136
0.0695,-0.0110
0.0700,9.7552
0.0705,12.1968
0.0710,10.6708
0.0715,9.4500
0.0720,7.9241
0.0725,3.6514
0.0730,-1.8421
0.0735,-4.5889
0.0740,-0.3162
0.0745,10.0604
0.0750,21.3526
0.0755,27.1513
0.0760,24.4046
0.0765,15.8591
0.0770,7.0085
0.0775,1.5150
0.0780,-0.9266
0.0785,-4.5889
0.0790,-11.6084
0.0795,-18.9330
0.0800,-20.1538
0.0805,-11.3032
0.0810,0.5994
0.0815,5.7877
0.0820,1.2098
0.0825,-6.4201
0.0830,-8.8616
0.0835,-5.1993
0.0840,1.2098
0.0845,9.7552
0.0850,21.6578
0.0855,33.5604
0.0860,38.7487
0.0865,34.1708
0.0870,23.7942
0.0875,13.4176
0.0880,6.3981
0.0885,2.4306
0.0890,0.9046
0.0895,2.4306
0.0900,5.7877
0.0905,8.2293
0.0910,5.4825
0.0915,-2.1473
0.0920,-11.3032
0.0925,-16.1863
0.0930,-16.1863
0.0935,-14.9655
0.0940,-18.0175
0.0945,-23.8161
0.0950,-27.4785
0.0955,-25.9525
0.0960,-23.5110
0.0965,-24.1213
0.0970,-25.6473
0.0975,-21.0694
0.0980,-10.0824
0.0985,-0.9266
0.0990,0.2942
0.0995,-0.6214
0.1000,0.5994
0.1005,1.5150
0.1010,-5.8097
0.1015,-18.6278
0.1020,-23.2058
0.1025,-13.7447
0.1030,-0.3162
0.1035,4.8721
0.1040,0.2942
0.1045,-11.9136
0.1050,-32.9720
0.1055,-58.3031
0.1060,-73.5628
0.1065,-66.5434
0.1070,-45.4849
0.1075,-28.3941
0.1080,-21.6798
0.1085,-14.6603
0.1090,-0.0110
0.1095,15.2487
0.1100,20.7422
0.1105,19.5215
0.1110,21.3526
0.1115,27.1513
0.1120,31.4240
0.1125,30.8137
0.1130,28.6773
0.1135,26.5409
0.1140,20.4370
0.1145,6.7033
0.1150,-8.8616
0.1155,-17.7123
0.1160,-16.1863
0.1165,-10.9980
0.1170,-10.6928
0.1175,-15.2707
0.1180,-19.2382
0.1185,-19.8486
0.1190,-18.9330
0.1195,-16.4915
0.1200,-10.0824
0.1205,-0.9266
0.1210,1.8202
0.1215,-3.0629
0.1220,-7.0305
0.1225,-1.2318
0.1230,9.7552
0.1235,16.4695
0.1240,16.7747
0.1245,15.2487
0.1250,13.7228
0.1255,10.3656
0.1260,7.3137
0.1265,7.6189
0.1270,10.3656
0.1275,15.5539
0.1280,25.0150
0.1285,37.5279
0.1290,43.6318
0.1295,36.3072
0.1300,20.4370
0.1305,6.7033
0.1310,-1.8421
0.1315,-7.3356
0.1320,-9.1668
0.1325,-5.1993
0.1330,0.5994
0.1335,5.4825
0.1340,10.0604
0.1345,15.2487
0.1350,15.2487
0.1355,9.4500
0.1360,5.7877
0.1365,8.8397
0.1370,9.7552
0.1375,-0.0110
0.1380,-14.0499
0.1385,-19.8486
0.1390,-17.1019
0.1395,-13.1343
0.1400,-8.5564
0.1405,-1.8421
0.1410,-0.3162
0.1415,-11.3032
0.1420,-27.4785
0.1425,-37.5499
0.1430,-44.2642
0.1435,-56.7771
0.1440,-69.2901
0.1445,-65.0174
0.1450,-40.9070
0.1455,-14.3551
0.1460,-0.6214
0.1465,1.8202
0.1470,-0.3162
0.1475,-7.3356
0.1480,-17.1019
0.1485,-24.1213
0.1490,-25.3421
0.1495,-28.6993
0.1500,-38.7707
0.1505,-48.8421
0.1510,-50.6733
0.1515,-45.4849
0.1520,-41.8226
0.1525,-47.3161
0.1530,-59.2187
0.1535,-67.4589
0.1540,-58.3031
0.1545,-26.8681
0.1550,13.7228
0.1555,42.7162
0.1560,50.0409
0.1565,45.4630
0.1570,44.5474
0.1575,49.4305
0.1580,52.4825
0.1585,47.5993
0.1590,36.6123
0.1595,24.4046
0.1600,15.5539
0.1605,11.5864
0.1610,11.5864
0.1615,11.8916
0.1620,12.1968
0.1625,16.4695
0.1630,27.4565
0.1635,38.1383
0.1640,39.0539
0.1645,30.8137
0.1650,24.4046
0.1655,25.6253
0.1660,27.7617
0.1665,23.7942
0.1670,18.9111
0.1675,22.5734
0.1680,32.3396
0.1685,34.4760
0.1690,21.9630
0.1695,2.4306
0.1700,-10.0824
0.1705,-14.0499
0.1710,-17.1019
0.1715,-25.6473
0.1720,-37.8551
0.1725,-46.7057
0.1730,-46.7057
0.1735,-37.8551
0.1740,-24.4265
0.1745,-11.6084
0.1750,-3.6733
0.1755,-2.1473
0.1760,-3.9785
0.1765,0.2942
0.1770,18.3007
0.1775,42.4110
0.1780,56.1448
0.1785,51.5669
0.1790,36.3072
0.1795,18.6059
0.1800,-3.3681
0.1805,-32.3616
0.1810,-56.1668
0.1815,-60.1343
0.1820,-48.5369
0.1825,-38.1603
0.1830,-35.1083
0.1835,-26.5629
0.1840,-4.2837
0.1845,20.1318
0.1850,31.4240
0.1855,28.6773
0.1860,21.9630
0.1865,17.6903
0.1870,16.4695
0.1875,20.4370
0.1880,32.0344
0.1885,47.2942
0.1890,58.8915
0.1895,64.3850
0.1900,66.5214
0.1905,66.2162
0.1910,60.1123
0.1915,48.2097
0.1920,36.6123
0.1925,32.0344
0.1930,33.5604
0.1935,33.5604
0.1940,27.1513
0.1945,17.6903
0.1950,10.9760
0.1955,9.7552
0.1960,10.3656
0.1965,10.9760
0.1970,13.1124
0.1975,19.5215
0.1980,24.4046
0.1985,21.6578
0.1990,12.5020
0.1995,4.8721
0.2000,2.1254
0.2005,-0.3162
0.2010,-5.5045
0.2015,-6.4201
0.2020,3.3462
0.2025,20.7422
0.2030,33.5604
0.2035,38.4435
0.2040,41.8007
0.2045,48.2097
0.2050,53.3980
0.2055,50.6513
0.2060,41.8007
0.2065,35.0864
0.2070,34.1708
0.2075,35.0864
0.2080,29.8981
0.2085,17.9955
0.2090,2.1254
0.2095,-14.0499
0.2100,-32.6668
0.2105,-55.8616
0.2110,-79.9719
0.2115,-95.8420
0.2120,-97.0628
0.2125,-87.2966
0.2130,-76.6148
0.2135,-67.7641
0.2140,-53.7252
0.2145,-31.7512
0.2150,-12.5240
0.2155,-7.9460
0.2160,-13.1343
0.2165,-11.6084
0.2170,0.5994
0.2175,11.8916
0.2180,11.8916
0.2185,6.7033
0.2190,6.3981
0.2195,5.1773
0.2200,-9.4720
0.2205,-37.2447
0.2210,-65.3226
0.2215,-85.1602
0.2220,-97.0628
0.2225,-100.1147
0.2230,-88.8226
0.2235,-66.2382
0.2240,-48.2317
0.2245,-44.5694
0.2250,-49.4525
0.2255,-49.1473
0.2260,-38.7707
0.2265,-21.6798
0.2270,-3.3681
0.2275,10.0604
0.2280,11.8916
0.2285,1.8202
0.2290,-9.7772
0.2295,-14.0499
0.2300,-12.2188
0.2305,-13.4395
0.2310,-17.1019
0.2315,-13.1343
0.2320,0.2942
0.2325,9.7552
0.2330,3.6514
0.2335,-11.9136
0.2340,-20.4590
0.2345,-16.1863
0.2350,-8.5564
0.2355,-7.0305
0.2360,-10.6928
0.2365,-11.9136
0.2370,-6.1149
0.2375,3.9565
0.2380,15.8591
0.2385,24.4046
0.2390,26.5409
0.2395,22.8786
0.2400,19.2163
0.2405,21.0474
0.2410,25.6253
0.2415,26.8461
0.2420,21.3526
0.2425,13.7228
0.2430,8.2293
0.2435,7.0085
0.2440,9.4500
0.2445,14.6384
0.2450,20.7422
0.2455,25.6253
0.2460,28.3721
0.2465,30.2033
0.2470,31.1188
0.2475,29.5929
0.2480,25.9305
0.2485,21.0474
0.2490,16.7747
0.2495,13.4176
0.2500,10.0604
0.2505,7.3137
0.2510,6.0929
0.2515,6.3981
0.2520,5.7877
0.2525,2.1254
0.2530,-4.2837
0.2535,-9.4720
0.2540,-10.6928
0.2545,-8.2512
0.2550,-4.5889
0.2555,-0.3162
0.2560,5.4825
0.2565,10.9760
0.2570,13.1124
0.2575,13.1124
0.2580,16.7747
0.2585,25.0150
0.2590,30.5085
0.2595,28.3721
0.2600,23.7942
0.2605,24.7098
0.2610,29.8981
0.2615,33.2552
0.2620,33.5604
0.2625,35.0864
0.2630,39.0539
0.2635,42.1058
0.2640,42.4110
0.2645,40.2747
0.2650,32.9500
0.2655,14.6384
0.2660,-9.4720
0.2665,-26.8681
0.2670,-32.0564
0.2675,-32.9720
0.2680,-39.9914
0.2685,-49.7577
0.2690,-53.7252
0.2695,-52.1992
0.2700,-52.5044
0.2705,-55.5564
0.2710,-55.8616
0.2715,-52.8096
0.2720,-53.7252
0.2725,-59.8291
0.2730,-61.9654
0.2735,-49.4525
0.2740,-21.9850
0.2745,7.6189
0.2750,26.8461
0.2755,29.8981
0.2760,23.4890
0.2765,18.6059
0.2770,17.3851
0.2775,10.0604
0.2780,-9.7772
0.2785,-34.1928
0.2790,-47.6213
0.2795,-46.7057
0.2800,-40.6018
0.2805,-33.5824
0.2810,-19.2382
0.2814,4.2617
0.2819,30.8137
0.2824,52.7877
0.2829,68.0474
0.2834,75.3720
0.2839,71.7097
0.2844,60.1123
0.2849,50.3461
0.2854,46.9890
0.2859,45.4630
0.2864,41.8007
0.2869,39.6643
0.2874,41.1903
0.2879,39.3591
0.2884,29.2877
0.2889,17.3851
0.2894,12.1968
0.2899,12.1968
0.2904,10.0604
0.2909,5.1773
0.2914,2.4306
0.2919,3.6514
0.2924,5.4825
0.2929,5.7877
0.2934,5.1773
0.2939,4.5669
0.2944,3.6514
0.2949,0.9046
0.2954,-2.7577
0.2959,-6.7253
0.2964,-8.8616
0.2969,-8.5564
0.2974,-7.6408
0.2979,-7.0305
0.2984,-3.3681
0.2989,8.5345
0.2994,27.4565
0.2999,44.8526
0.3004,54.6188
0.3009,58.8915
0.3014,60.4175
0.3019,57.3656
0.3024,50.9565
0.3029,48.5149
0.3034,52.1773
0.3039,54.3136
0.3044,44.2422
0.3049,23.7942
0.3054,4.5669
0.3059,-7.3356
0.3064,-17.1019
0.3069,-29.3096
0.3074,-46.7057
0.3079,-73.5628
0.3084,-111.4069
0.3089,-149.2510
0.3094,-166.9523
0.3099,-155.6601
0.3104,-128.1926
0.3109,-100.7251
0.3114,-72.3421
0.3119,-34.1928
0.3124,5.4825
0.3129,27.7617
0.3134,25.6253
0.3139,13.7228
0.3144,7.0085
0.3149,4.2617
0.3154,0.2942
0.3159,-0.3162
0.3164,6.7033
0.3169,14.3332
0.3174,13.4176
0.3179,6.7033
0.3184,5.4825
0.3189,10.6708
0.3194,14.0280
0.3199,13.4176
0.3204,14.3332
0.3209,19.5215
0.3214,24.4046
0.3219,24.0994
0.3224,19.8267
0.3229,15.2487
0.3234,10.9760
0.3239,7.3137
0.3244,4.8721
0.3249,3.3462
0.3254,0.5994
0.3259,-2.4525
0.3264,-3.6733
0.3269,-3.0629
0.3274,-3.6733
0.3279,-4.5889
0.3284,-3.3681
0.3289,-0.0110
0.3294,2.7358
0.3299,3.6514
0.3304,4.5669
0.3309,5.4825
0.3314,4.5669
0.3319,0.9046
0.3324,-3.0629
0.3329,-6.1149
0.3334,-7.9460
0.3339,-10.0824
0.3344,-10.9980
0.3349,-11.6084
0.3354,-13.7447
0.3359,-17.4071
0.3364,-20.1538
0.3369,-19.8486
0.3374,-17.4071
0.3379,-16.1863
0.3384,-16.7967
0.3389,-19.2382
0.3394,-21.9850
0.3399,-23.8161
0.3404,-22.2902
0.3409,-18.9330
0.3414,-15.8811
0.3419,-15.5759
0.3424,-16.1863
0.3429,-14.3551
0.3434,-10.6928
0.3439,-7.6408
0.3444,-5.8097
0.3449,-3.9785
0.3454,-0.3162
0.3459,3.6514
0.3464,7.0085
0.3469,7.9241
0.3474,7.9241
0.3479,7.6189
0.3484,7.3137
0.3489,6.0929
0.3494,3.0410
0.3499,-0.0110
0.3504,-0.6214
0.3509,1.8202
0.3514,5.4825
0.3519,9.1449
0.3524,15.5539
0.3529,23.1838
0.3534,25.6253
0.3539,18.9111
0.3544,10.3656
0.3549,9.1449
0.3554,13.4176
0.3559,14.0280
0.3564,10.0604
0.3569,10.6708
0.3574,18.6059
0.3579,25.3202
0.3584,24.7098
0.3589,20.7422
0.3594,17.0799
0.3599,8.8397
0.3604,-8.5564
0.3609,-27.1733
0.3614,-33.8876
0.3619,-28.0889
0.3624,-19.5434
0.3629,-14.0499
0.3634,-8.2512
0.3639,-0.6214
0.3644,2.7358
0.3649,-0.0110
0.3654,-6.7253
0.3659,-12.8291
0.3664,-18.9330
0.3669,-26.5629
0.3674,-32.9720
0.3679,-37.8551
0.3684,-40.9070
0.3689,-40.6018
0.3694,-33.8876
0.3699,-25.0369
0.3704,-22.9006
0.3709,-29.0045
0.3714,-35.1083
0.3719,-34.1928
0.3724,-31.1408
0.3729,-32.0564
0.3734,-33.8876
0.3739,-27.1733
0.3744,-10.9980
0.3749,4.5669
0.3754,13.1124
0.3759,16.7747
0.3764,21.3526
0.3769,28.0669
0.3774,35.3916
0.3779,41.8007
0.3784,46.6838
0.3789,48.5149
0.3794,47.2942
0.3799,44.2422
0.3804,42.7162
0.3809,43.0214
0.3814,43.0214
0.3819,39.9695
0.3824,34.1708
0.3829,27.7617
0.3834,23.4890
0.3839,21.3526
0.3844,19.2163
0.3849,16.7747
0.3854,14.6384
0.3859,14.0280
0.3864,13.7228
0.3869,12.1968
0.3874,10.0604
0.3879,7.9241
0.3884,5.7877
0.3889,3.3462
0.3894,0.9046
0.3899,-2.1473
0.3904,-6.7253
0.3909,-10.6928
0.3914,-10.6928
0.3919,-6.4201
0.3924,-2.4525
0.3929,-2.4525
0.3934,-4.8941
0.3939,-6.1149
0.3944,-4.8941
0.3949,-3.0629
0.3954,-1.8421
0.3959,-0.0110
0.3964,2.4306
0.3969,3.3462
0.3974,1.8202
0.3979,-0.0110
0.3984,-0.3162
0.3989,-0.9266
0.3994,-3.0629
0.3999,-7.6408
0.4004,-11.9136
0.4009,-13.1343
0.4014,-10.3876
0.4019,-5.8097
0.4024,-2.4525
0.4029,-2.1473
0.4034,-2.7577
0.4039,-0.9266
0.4044,3.6514
0.4049,10.9760
0.4054,19.5215
0.4059,26.2357
0.4064,28.9825
0.4069,26.8461
0.4074,24.0994
0.4079,25.0150
0.4084,28.9825
0.4089,33.5604
0.4094,34.7812
0.4099,32.0344
0.4104,25.0150
0.4109,16.1643
0.4114,9.1449
0.4119,6.3981
0.4124,5.1773
0.4129,-1.8421
0.4134,-22.2902
0.4139,-53.4200
0.4144,-83.3291
0.4149,-100.1147
0.4154,-102.2511
0.4159,-100.4199
0.4164,-103.4719
0.4169,-105.9134
0.4174,-96.7576
0.4179,-76.0044
0.4184,-55.8616
0.4189,-44.2642
0.4194,-32.6668
0.4199,-10.0824
0.4204,18.3007
0.4209,40.8851
0.4214,50.9565
0.4219,53.3980
0.4224,51.2617
0.4229,43.3266
0.4234,31.4240
0.4239,21.6578
0.4244,16.4695
0.4249,11.5864
0.4254,4.2617
0.4259,-1.2318
0.4264,-2.4525
0.4269,-0.0110
0.4274,3.6514
0.4279,7.6189
0.4284,11.5864
0.4289,13.7228
0.4294,14.6384
0.4299,16.4695
0.4304,20.4370
0.4309,23.1838
0.4314,22.8786
0.4319,21.6578
0.4324,21.6578
0.4329,21.3526
0.4334,19.2163
0.4339,16.4695
0.4344,17.0799
0.4349,20.7422
0.4354,24.0994
0.4359,24.0994
0.4364,20.4370
0.4369,13.4176
0.4374,4.2617
0.4379,-3.9785
0.4384,-10.9980
0.4389,-15.5759
0.4394,-18.6278
0.4399,-19.2382
0.4404,-17.4071
0.4409,-13.7447
0.4414,-10.0824
0.4419,-6.1149
0.4424,-2.4525
0.4429,-0.0110
0.4434,-0.6214
0.4439,-1.2318
0.4444,1.2098
0.4449,7.6189
0.4454,14.0280
0.4459,18.6059
0.4464,21.9630
0.4469,22.8786
0.4474,18.9111
0.4479,9.4500
0.4484,0.2942
0.4489,-3.6733
0.4494,-4.2837
0.4499,-4.5889
0.4504,-3.0629
0.4509,-0.3162
0.4514,0.5994
0.4519,-0.9266
0.4524,-1.5370
0.4529,1.8202
0.4534,5.4825
0.4539,3.6514
0.4544,-0.3162
0.4549,-1.5370
0.4554,-0.0110
0.4559,0.9046
0.4564,3.0410
0.4569,10.3656
0.4574,20.1318
0.4579,23.7942
0.4584,19.2163
0.4589,12.5020
0.4594,9.1449
0.4599,7.9241
0.4604,6.7033
0.4609,4.5669
0.4614,1.5150
0.4619,-1.8421
0.4624,-4.2837
0.4629,-3.6733
0.4634,-3.3681
0.4639,-6.4201
0.4644,-10.0824
0.4649,-10.6928
0.4654,-12.5240
0.4659,-23.2058
0.4664,-40.6018
0.4669,-52.8096
0.4674,-52.5044
0.4679,-43.0434
0.4684,-30.2252
0.4689,-16.4915
0.4694,-1.8421
0.4699,9.7552
0.4704,17.6903
0.4709,22.8786
0.4714,28.3721
0.4719,33.5604
0.4724,37.5279
0.4729,39.3591
0.4734,39.3591
0.4739,39.0539
0.4744,42.7162
0.4749,50.3461
0.4754,54.9240
0.4759,48.8201
0.4764,33.2552
0.4769,17.3851
0.4774,4.5669
0.4779,-10.6928
0.4784,-34.8031
0.4789,-63.7966
0.4794,-84.2446
0.4799,-88.2122
0.4804,-83.3291
0.4809,-85.4654
0.4814,-100.4199
0.4819,-114.1537
0.4824,-111.7121
0.4829,-97.0628
0.4834,-88.2122
0.4839,-90.0433
0.4844,-87.2966
0.4849,-65.3226
0.4854,-30.5304
0.4859,-2.1473
0.4864,11.5864
0.4869,17.6903
0.4874,24.0994
0.4879,33.5604
0.4884,44.5474
0.4889,54.3136
0.4894,59.5019
0.4899,57.6708
0.4904,50.9565
0.4909,43.0214
0.4914,34.7812
0.4919,25.9305
0.4924,18.3007
0.4929,14.9435
0.4934,14.6384
0.4939,14.3332
0.4944,13.4176
0.4949,14.0280
0.4954,16.7747
0.4959,18.6059
0.4964,15.8591
0.4969,10.6708
0.4974,8.8397
0.4979,12.8072
0.4984,19.2163
0.4989,23.1838
0.4994,22.5734
0.4999,19.2163
0.5004,13.7228
0.5009,6.7033
0.5014,-0.0110
0.5019,-3.3681
0.5024,-2.4525
0.5029,-0.0110
0.5034,2.1254
0.5039,3.9565
0.5044,7.3137
0.5049,12.5020
0.5054,19.5215
0.5059,28.6773
0.5064,38.7487
0.5069,44.5474
0.5074,42.7162
0.5079,34.1708
0.5084,24.7098
0.5089,16.1643
0.5094,8.2293
0.5099,0.9046
0.5104,-3.6733
0.5109,-5.1993
0.5114,-5.1993
0.5119,-5.8097
0.5124,-7.6408
0.5129,-8.2512
0.5134,-6.4201
0.5139,-3.3681
0.5144,-1.2318
0.5149,-1.2318
0.5154,-1.5370
0.5159,-1.8421
0.5164,-1.8421
0.5169,-2.4525
0.5174,-2.4525
0.5179,-0.6214
0.5184,2.4306
0.5189,4.5669
0.5194,4.5669
0.5199,3.6514
0.5204,4.2617
0.5209,6.3981
0.5214,8.2293
0.5219,8.2293
0.5224,6.7033
0.5229,4.8721
0.5234,2.1254
0.5239,-1.5370
0.5244,-6.7253
0.5249,-10.0824
0.5254,-10.6928
0.5259,-7.9460
0.5264,-3.3681
0.5269,0.5994
0.5274,3.0410
0.5279,3.0410
0.5284,2.1254
0.5289,4.5669
0.5294,10.6708
0.5299,15.8591
0.5304,15.8591
0.5309,10.9760
0.5314,7.0085
0.5319,5.4825
0.5324,5.1773
0.5329,3.3462
0.5334,-1.2318
0.5339,-8.2512
0.5344,-15.8811
0.5349,-19.8486
0.5354,-17.1019
0.5359,-11.9136
0.5364,-10.3876
0.5369,-13.1343
0.5374,-15.2707
0.5379,-12.5240
0.5384,-7.6408
0.5389,-3.3681
0.5394,1.5150
0.5399,9.1449
0.5404,16.1643
0.5409,18.3007
0.5414,15.2487
0.5419,10.6708
0.5424,7.9241
0.5429,6.7033
0.5434,3.3462
0.5439,-2.7577
0.5444,-9.1668
0.5449,-10.9980
0.5454,-6.7253
0.5459,-1.5370
0.5464,-0.3162
0.5469,-3.3681
0.5474,-7.0305
0.5479,-10.6928
0.5484,-14.9655
0.5489,-17.7123
0.5494,-15.2707
0.5499,-9.4720
0.5504,-5.5045
0.5509,-4.2837
0.5514,-0.6214
0.5519,9.4500
0.5524,20.4370
0.5529,24.0994
0.5534,17.6903
0.5539,6.0929
0.5544,-5.8097
0.5549,-14.9655
0.5554,-18.3226
0.5559,-16.7967
0.5564,-14.3551
0.5569,-14.9655
0.5574,-18.9330
0.5579,-22.9006
0.5584,-24.7317
0.5589,-24.4265
0.5594,-23.2058
0.5599,-20.1538
0.5604,-15.2707
0.5609,-10.3876
0.5614,-6.7253
0.5619,-3.6733
0.5624,-0.0110
0.5629,2.1254
0.5634,1.8202
0.5639,-0.9266
0.5644,-2.4525
0.5649,-0.3162
0.5654,2.1254
0.5659,1.8202
0.5664,-0.3162
0.5669,-2.1473
0.5674,-1.5370
0.5679,-0.3162
0.5684,0.2942
0.5689,0.9046
0.5694,1.8202
0.5699,2.4306
0.5704,3.9565
0.5709,7.3137
0.5714,11.8916
0.5719,14.3332
0.5724,12.8072
0.5729,8.2293
0.5734,3.0410
0.5739,-0.0110
0.5744,-1.2318
0.5749,-2.1473
0.5754,-2.4525
0.5759,-1.8421
0.5764,-0.9266
0.5769,-2.7577
0.5774,-5.8097
0.5779,-6.7253
0.5784,-2.4525
0.5789,3.3462
0.5794,6.0929
0.5799,4.8721
0.5804,3.0410
0.5809,0.9046
0.5814,-1.8421
0.5819,-3.3681
0.5824,0.9046
0.5829,8.5345
0.5834,11.2812
0.5839,6.7033
0.5844,0.9046
0.5849,-2.1473
0.5854,-5.5045
0.5859,-9.4720
0.5864,-8.8616
0.5869,-2.1473
0.5874,1.5150
0.5879,-3.9785
0.5884,-15.5759
0.5889,-25.9525
0.5894,-32.3616
0.5899,-34.1928
0.5904,-28.3941
0.5909,-18.0175
0.5914,-15.5759
0.5919,-27.7837
0.5924,-42.4330
0.5929,-43.6538
0.5934,-32.3616
0.5939,-20.7642
0.5944,-12.2188
0.5949,-1.5370
0.5954,8.5345
0.5959,7.6189
0.5964,-6.1149
0.5969,-19.8486
0.5974,-21.3746
0.5979,-14.6603
0.5984,-8.5564
0.5989,-3.9785
0.5994,2.1254
0.5999,8.2293
0.6004,10.0604
0.6009,8.8397
0.6014,9.1449
0.6019,11.8916
0.6024,15.8591
0.6029,20.1318
0.6034,21.9630
0.6039,17.3851
0.6044,6.3981
0.6049,-3.3681
0.6054,-4.5889
0.6059,2.1254
0.6064,11.2812
0.6069,19.2163
0.6074,26.8461
0.6079,34.1708
0.6084,38.7487
0.6089,39.6643
0.6094,41.4955
0.6099,47.2942
0.6104,53.3980
0.6109,56.4500
0.6114,57.6708
0.6119,60.4175
0.6124,62.2487
0.6129,56.4500
0.6134,39.9695
0.6139,18.9111
0.6144,2.4306
0.6149,-5.8097
0.6154,-9.1668
0.6159,-10.0824
0.6164,-9.1668
0.6169,-7.9460
0.6174,-7.0305
0.6179,-7.3356
0.6184,-7.0305
0.6189,-5.5045
0.6194,-2.7577
0.6199,-0.0110
0.6204,3.3462
0.6209,7.0085
0.6214,8.8397
0.6219,8.5345
0.6224,4.8721
0.6229,-0.6214
0.6234,-6.1149
0.6239,-7.0305
0.6244,-2.1473
0.6249,4.5669
0.6254,7.9241
0.6259,5.7877
0.6264,0.5994
0.6269,-3.9785
0.6274,-8.2512
0.6279,-12.5240
0.6284,-14.6603
0.6289,-12.8291
0.6294,-7.0305
0.6299,-0.6214
0.6304,4.2617
0.6309,7.6189
0.6314,10.0604
0.6319,11.5864
0.6324,9.4500
0.6329,1.5150
0.6334,-8.5564
0.6339,-13.4395
0.6344,-6.7253
0.6349,7.9241
0.6354,23.4890
0.6359,33.5604
0.6364,36.9175
0.6369,29.8981
0.6374,8.5345
0.6379,-21.6798
0.6384,-47.9265
0.6389,-58.6083
0.6394,-57.9979
0.6399,-57.6927
0.6404,-61.0499
0.6409,-61.0499
0.6414,-51.2836
0.6419,-35.1083
0.6424,-21.6798
0.6429,-16.4915
0.6434,-17.4071
0.6439,-20.7642
0.6444,-23.2058
0.6449,-21.6798
0.6454,-13.7447
0.6459,-2.7577
0.6464,3.3462
0.6469,-0.0110
0.6474,-9.4720
0.6479,-18.9330
0.6484,-23.8161
0.6489,-26.5629
0.6494,-30.5304
0.6499,-37.8551
0.6504,-48.8421
0.6509,-60.7447
0.6514,-67.1538
0.6519,-64.7122
0.6524,-58.3031
0.6529,-53.1148
0.6534,-47.6213
0.6539,-35.1083
0.6544,-16.7967
0.6549,-3.3681
0.6554,1.5150
0.6559,8.2293
0.6564,23.4890
0.6569,40.8851
0.6574,48.5149
0.6579,46.3786
0.6584,43.0214
0.6589,41.8007
0.6594,42.1058
0.6599,46.6838
0.6604,59.5019
0.6609,74.4565
0.6614,77.5084
0.6619,65.6058
0.6624,50.3461
0.6629,42.1058
0.6634,38.1383
0.6639,30.2033
0.6644,17.3851
0.6649,5.4825
0.6654,-0.9266
0.6659,-1.5370
0.6664,4.5669
0.6669,15.8591
0.6674,25.3202
0.6679,26.8461
0.6684,23.7942
0.6689,22.2682
0.6694,23.4890
0.6699,23.4890
0.6704,21.3526
0.6709,18.6059
0.6714,14.0280
0.6719,7.0085
0.6724,0.9046
0.6729,-0.0110
0.6734,1.2098
0.6739,-0.6214
0.6744,-5.8097
0.6749,-7.3356
0.6754,-3.3681
0.6759,-1.5370
0.6764,-6.7253
0.6769,-14.0499
0.6774,-17.1019
0.6779,-17.1019
0.6784,-17.7123
0.6789,-18.3226
0.6794,-15.8811
0.6799,-13.1343
0.6804,-13.7447
0.6809,-16.1863
0.6814,-15.8811
0.6819,-11.9136
0.6824,-5.1993
0.6829,4.8721
0.6834,17.3851
0.6839,24.7098
0.6844,20.4370
0.6849,7.6189
0.6854,-3.9785
0.6859,-11.9136
0.6864,-17.1019
0.6869,-18.0175
0.6874,-12.8291
0.6879,-8.2512
0.6884,-14.9655
0.6889,-32.0564
0.6894,-43.9590
0.6899,-41.5174
0.6904,-32.9720
0.6909,-29.3096
0.6914,-27.7837
0.6919,-16.7967
0.6924,2.7358
0.6929,20.7422
0.6934,29.5929
0.6939,31.7292
0.6944,31.1188
0.6949,25.9305
0.6954,15.2487
0.6959,2.7358
0.6964,-8.5564
0.6969,-23.5110
0.6974,-45.4849
0.6979,-69.9005
0.6984,-88.5174
0.6989,-96.4524
0.6994,-95.8420
0.6999,-89.4329
0.7004,-79.3615
0.7009,-65.3226
0.7014,-43.9590
0.7019,-10.9980
0.7024,31.4240
0.7029,73.5409
0.7034,103.1447
0.7039,115.9629
0.7044,116.5733
0.7049,112.6058
0.7054,107.7226
0.7059,101.6188
0.7064,90.6318
0.7069,72.9305
0.7074,54.3136
0.7079,44.8526
0.7084,47.9045
0.7089,55.5344
0.7094,59.8071
0.7099,60.1123
0.7104,57.9760
0.7109,48.2097
0.7114,27.4565
0.7119,3.3462
0.7124,-10.9980
0.7129,-14.3551
0.7134,-19.2382
0.7139,-34.1928
0.7144,-54.3356
0.7149,-66.2382
0.7154,-62.2706
0.7159,-46.4005
0.7164,-28.0889
0.7169,-14.3551
0.7174,-3.0629
0.7179,13.7228
0.7184,36.3072
0.7189,52.4825
0.7194,50.3461
0.7199,34.4760
0.7204,18.9111
0.7209,8.8397
0.7214,-0.0110
0.7219,-12.5240
0.7224,-26.5629
0.7229,-41.8226
0.7234,-57.0823
0.7239,-65.0174
0.7244,-59.2187
0.7249,-45.1798
0.7254,-36.0239
0.7259,-31.4460
0.7264,-20.4590
0.7269,-0.9266
0.7274,11.8916
0.7279,8.2293
0.7284,-4.5889
0.7289,-14.6603
0.7294,-18.3226
0.7299,-17.1019
0.7304,-11.3032
0.7309,-2.7577
0.7314,4.2617
0.7319,8.5345
0.7324,14.0280
0.7329,19.8267
0.7334,17.3851
0.7339,6.0929
0.7344,-4.8941
0.7349,-11.3032
0.7354,-18.9330
0.7359,-29.3096
0.7364,-31.4460
0.7369,-20.1538
0.7374,-11.3032
0.7379,-21.9850
0.7384,-43.9590
0.7389,-53.1148
0.7394,-41.8226
0.7399,-26.2577
0.7404,-19.8486
0.7409,-19.2382
0.7414,-14.9655
0.7419,-8.8616
0.7424,-7.9460
0.7429,-12.5240
0.7434,-16.7967
0.7439,-17.1019
0.7444,-13.7447
0.7449,-7.6408
0.7454,-0.0110
0.7459,6.3981
0.7464,8.8397
0.7469,5.7877
0.7474,-0.3162
0.7479,-5.1993
0.7484,-3.9785
0.7489,3.6514
0.7494,14.6384
0.7499,25.6253
0.7504,34.1708
0.7509,39.6643
0.7514,40.8851
0.7519,36.3072
0.7524,28.6773
0.7529,21.6578
0.7534,17.3851
0.7539,14.6384
0.7544,13.1124
0.7549,12.8072
0.7554,11.2812
0.7559,7.6189
0.7564,3.3462
0.7569,3.0410
0.7574,6.0929
0.7579,7.9241
0.7584,5.7877
0.7589,2.4306
0.7594,1.5150
0.7599,2.7358
0.7604,3.0410
0.7609,2.1254
0.7614,1.8202
0.7619,3.6514
0.7624,5.7877
0.7629,5.7877
0.7634,3.0410
0.7639,-0.0110
0.7644,-0.6214
0.7649,-0.0110
0.7654,1.2098
0.7659,0.2942
0.7664,-1.8421
0.7669,-2.4525
0.7674,-0.3162
0.7679,2.4306
0.7684,3.6514
0.7689,2.1254
0.7694,0.5994
0.7699,-0.0110
0.7704,0.2942
0.7709,0.2942
0.7714,-0.0110
0.7719,-1.2318
0.7724,-3.0629
0.7729,-4.2837
0.7734,-3.6733
0.7739,-2.1473
0.7744,-1.5370
0.7749,-2.7577
0.7754,-3.9785
0.7759,-3.3681
0.7764,-1.8421
0.7769,-0.9266
0.7774,-2.1473
0.7779,-3.9785
0.7784,-4.2837
0.7789,-3.3681
0.7794,-2.1473
0.7799,-1.8421
0.7804,-2.4525
0.7809,-3.6733
0.7814,-4.2837
0.7819,-4.2837
0.7824,-3.9785
0.7829,-3.9785
0.7834,-3.9785
0.7839,-3.3681
0.7844,-2.1473
0.7849,-1.5370
0.7854,-1.5370
0.7859,-0.9266
0.7864,-0.0110
0.7869,-0.0110
0.7874,-0.6214
0.7879,-2.4525
0.7884,-3.0629
0.7889,-2.4525
0.7894,-0.9266
0.7899,0.2942
0.7904,2.1254
0.7909,3.3462
0.7914,2.4306
0.7919,-0.9266
0.7924,-4.5889
0.7929,-5.5045
0.7934,-3.6733
0.7939,-1.5370
0.7944,-0.6214
0.7949,-0.3162
0.7954,-0.0110
0.7959,0.2942
0.7964,-0.0110
0.7969,-1.2318
0.7974,-1.2318
0.7979,0.9046
0.7984,4.5669
0.7989,6.3981
0.7994,6.3981
0.7999,4.8721
0.8004,3.0410
0.8009,1.8202
0.8014,0.5994
0.8019,-0.0110
0.8024,-0.0110
0.8029,0.9046
0.8034,3.9565
0.8039,7.6189
0.8044,10.6708
0.8049,10.9760
0.8054,8.5345
0.8059,3.9565
0.8064,-0.0110
0.8069,-1.8421
0.8074,-1.8421
0.8079,-1.5370
0.8084,-2.4525
0.8089,-3.9785
0.8094,-4.8941
0.8099,-4.2837
0.8104,-2.7577
0.8109,-0.9266
0.8114,-0.0110
0.8119,-0.0110
0.8124,-0.6214
0.8129,-1.8421
0.8134,-2.7577
0.8139,-3.6733
0.8144,-3.6733
0.8149,-3.6733
0.8154,-3.3681
0.8159,-2.7577
0.8164,-1.2318
0.8169,-0.3162
0.8174,-0.0110
0.8179,-0.9266
0.8184,-2.4525
0.8189,-3.0629
0.8194,-2.1473
0.8199,-0.0110
0.8204,1.2098
0.8209,1.2098
0.8214,-0.0110
0.8219,-0.6214
0.8224,-0.9266
0.8229,-0.9266
0.8234,-1.2318
0.8239,-2.1473
0.8244,-3.0629
0.8249,-3.0629
0.8254,-2.4525
0.8259,-0.9266
0.8264,0.2942
0.8269,1.5150
0.8274,2.4306
0.8279,3.3462
0.8284,3.3462
0.8289,2.7358
0.8294,2.4306
0.8299,3.0410
0.8304,4.8721
0.8309,6.7033
0.8314,7.0085
0.8319,6.3981
0.8324,6.0929
0.8329,6.7033
0.8334,6.0929
0.8339,3.3462
0.8344,0.5994
0.8349,-0.3162
0.8354,-0.0110
0.8359,-0.3162
0.8364,-0.9266
0.8369,-0.0110
0.8374,2.4306
0.8379,3.0410
0.8384,2.4306
0.8389,2.1254
0.8394,3.0410
0.8399,3.9565
0.8404,3.9565
0.8409,3.6514
0.8414,3.6514
0.8419,2.4306
0.8424,0.5994
0.8429,-0.9266
0.8434,-3.6733
0.8438,-8.8616
0.8443,-14.0499
0.8448,-16.4915
0.8453,-15.8811
0.8458,-15.2707
0.8463,-14.6603
0.8468,-10.3876
0.8473,-2.4525
0.8478,3.9565
0.8483,5.7877
0.8488,5.7877
0.8493,7.0085
0.8498,9.1449
0.8503,9.7552
0.8508,7.9241
0.8513,6.7033
0.8518,7.6189
0.8523,12.5020
0.8528,20.1318
0.8533,24.4046
0.8538,20.7422
0.8543,13.4176
0.8548,10.9760
0.8553,13.1124
0.8558,9.4500
0.8563,-5.1993
0.8568,-23.5110
0.8573,-33.5824
0.8578,-34.1928
0.8583,-31.1408
0.8588,-25.9525
0.8593,-18.6278
0.8598,-11.9136
0.8603,-9.4720
0.8608,-8.8616
0.8613,-5.5045
0.8618,-0.0110
0.8623,3.3462
0.8628,4.2617
0.8633,7.3137
0.8638,12.8072
0.8643,15.5539
0.8648,12.5020
0.8653,7.0085
0.8658,3.6514
0.8663,3.9565
0.8668,4.8721
0.8673,4.8721
0.8678,3.9565
0.8683,2.4306
0.8688,1.2098
0.8693,0.2942
0.8698,0.5994
0.8703,1.8202
0.8708,2.4306
0.8713,0.5994
0.8718,-3.0629
0.8723,-7.0305
0.8728,-8.8616
0.8733,-8.8616
0.8738,-8.5564
0.8743,-7.0305
0.8748,-2.4525
0.8753,3.3462
0.8758,7.0085
0.8763,9.1449
0.8768,12.1968
0.8773,16.4695
0.8778,19.2163
0.8783,20.1318
0.8788,20.7422
0.8793,22.2682
0.8798,22.2682
0.8803,19.2163
0.8808,14.6384
0.8813,9.4500
0.8818,3.6514
0.8823,-3.3681
0.8828,-8.5564
0.8833,-9.7772
0.8838,-9.4720
0.8843,-13.4395
0.8848,-23.2058
0.8853,-32.6668
0.8858,-34.4979
0.8863,-28.0889
0.8868,-19.8486
0.8873,-15.8811
0.8878,-13.4395
0.8883,-7.9460
0.8888,0.5994
0.8893,6.3981
0.8898,5.7877
0.8903,1.8202
0.8908,-2.7577
0.8913,-8.8616
0.8918,-15.8811
0.8923,-21.3746
0.8928,-21.6798
0.8933,-18.6278
0.8938,-15.5759
0.8943,-12.8291
0.8948,-8.8616
0.8953,-3.3681
0.8958,0.5994
0.8963,2.7358
0.8968,3.3462
0.8973,3.6514
0.8978,3.6514
0.8983,1.5150
0.8988,-2.1473
0.8993,-4.8941
0.8998,-4.5889
0.9003,-0.9266
0.9008,1.8202
0.9013,2.4306
0.9018,1.2098
0.9023,1.2098
0.9028,3.6514
0.9033,7.0085
0.9038,8.8397
0.9043,8.5345
0.9048,6.0929
0.9053,4.2617
0.9058,4.2617
0.9063,5.1773
0.9068,3.9565
0.9073,1.2098
0.9078,-0.0110
0.9083,1.5150
0.9088,4.8721
0.9093,6.0929
0.9098,4.8721
0.9103,3.9565
0.9108,4.2617
0.9113,5.4825
0.9118,5.7877
0.9123,4.8721
0.9128,4.2617
0.9133,5.4825
0.9138,7.3137
0.9143,8.2293
0.9148,7.3137
0.9153,5.4825
0.9158,3.3462
0.9163,-0.6214
0.9168,-7.9460
0.9173,-13.7447
0.9178,-14.6603
0.9183,-10.3876
0.9188,-4.8941
0.9193,-1.2318
0.9198,0.5994
0.9203,2.1254
0.9208,3.3462
0.9213,3.0410
0.9218,2.1254
0.9223,1.2098
0.9228,-0.0110
0.9233,-1.2318
0.9238,-2.1473
0.9243,-0.9266
0.9248,0.5994
0.9253,1.2098
0.9258,0.5994
0.9263,0.9046
0.9268,2.7358
0.9273,4.2617
0.9278,3.9565
0.9283,1.5150
0.9288,-0.3162
0.9293,-0.9266
0.9298,-0.3162
0.9303,-0.0110
0.9308,-0.6214
0.9313,-1.5370
0.9318,-3.3681
0.9323,-4.8941
0.9328,-4.5889
0.9333,-2.7577
0.9338,-0.0110
0.9343,2.1254
0.9348,3.9565
0.9353,5.7877
0.9358,6.0929
0.9363,5.4825
0.9368,4.8721
0.9373,4.8721
0.9378,4.2617
0.9383,2.7358
0.9388,2.4306
0.9393,4.8721
0.9398,7.0085
0.9403,5.4825
0.9408,0.9046
0.9413,-0.9266
0.9418,0.5994
0.9423,4.2617
0.9428,6.0929
0.9433,5.4825
0.9438,4.2617
0.9443,2.7358
0.9448,1.2098
0.9453,0.2942
0.9458,0.2942
0.9463,-0.0110
0.9468,-1.2318
0.9473,-2.4525
0.9478,-1.8421
0.9483,-0.0110
0.9488,-0.0110
0.9493,-2.4525
0.9498,-5.8097
0.9503,-6.7253
0.9508,-7.3356
0.9513,-11.3032
0.9518,-17.7123
0.9523,-20.7642
0.9528,-16.7967
0.9533,-9.7772
0.9538,-5.8097
0.9543,-6.4201
0.9548,-7.0305
0.9553,-5.5045
0.9558,-2.4525
0.9563,-0.0110
0.9568,2.7358
0.9573,6.3981
0.9578,9.7552
0.9583,10.9760
0.9588,11.2812
0.9593,12.1968
0.9598,13.1124
0.9603,12.8072
0.9608,11.8916
0.9613,11.2812
0.9618,9.7552
0.9623,6.0929
0.9628,2.1254
0.9633,0.2942
0.9638,2.1254
0.9643,6.0929
0.9648,9.4500
0.9653,10.6708
0.9658,8.2293
0.9663,3.3462
0.9668,-0.0110
0.9673,-0.0110
0.9678,2.1254
0.9683,3.0410
0.9688,1.5150
0.9693,-0.0110
0.9698,-0.6214
0.9703,-0.6214
0.9708,-1.5370
0.9713,-3.0629
0.9718,-3.9785
0.9723,-3.9785
0.9728,-3.3681
0.9733,-1.8421
0.9738,-0.0110
0.9743,0.2942
0.9748,-0.0110
0.9753,-1.8421
0.9758,-3.0629
0.9763,-3.6733
0.9768,-2.7577
0.9773,-1.5370
0.9778,-1.2318
0.9783,-2.4525
0.9788,-3.0629
0.9793,-2.1473
0.9798,-1.2318
0.9803,-0.9266
0.9808,-0.0110
0.9813,2.7358
0.9818,4.5669
0.9823,3.6514
0.9828,1.8202
0.9833,1.5150
0.9838,1.5150
0.9843,-1.2318
0.9848,-5.8097
0.9853,-7.6408
0.9858,-5.8097
0.9863,-3.9785
0.9868,-4.5889
0.9873,-5.8097
0.9878,-6.1149
0.9883,-5.8097
0.9888,-5.5045
0.9893,-4.8941
0.9898,-3.3681
0.9903,-1.5370
0.9908,-0.0110
0.9913,1.2098
0.9918,1.2098
0.9923,-0.0110
0.9928,-0.3162
0.9933,-0.0110
0.9938,-0.3162
0.9943,-3.3681
0.9948,-7.6408
0.9953,-8.5564
0.9958,-6.7253
0.9963,-4.8941
0.9968,-4.5889
0.9973,-3.6733
0.9978,-0.3162
0.9983,3.6514
0.9988,6.3981
0.9993,6.3981
0.9998,5.1773
1.0003,3.9565
1.0008,2.7358
1.0013,1.5150
1.0018,-0.3162
1.0023,-2.7577
1.0028,-4.5889
1.0033,-4.2837
1.0038,-2.1473
1.0043,0.2942
1.0048,2.1254
1.0053,2.4306
1.0058,1.2098
1.0063,0.9046
1.0068,2.4306
1.0073,3.0410
1.0078,0.5994
1.0083,-1.8421
1.0088,-1.5370
1.0093,0.9046
1.0098,2.1254
1.0103,0.2942
1.0108,-0.6214
1.0113,-0.0110
1.0118,1.2098
1.0123,0.2942
1.0128,-1.2318
1.0133,-1.8421
1.0138,-1.5370
1.0143,-0.9266
1.0148,-1.2318
1.0153,-2.1473
1.0158,-3.0629
1.0163,-3.6733
1.0168,-3.0629
1.0173,-1.8421
1.0178,-0.6214
1.0183,-0.0110
1.0188,0.9046
1.0193,3.0410
1.0198,4.8721
1.0203,4.8721
1.0208,3.3462
1.0213,1.5150
1.0218,-0.9266
1.0223,-3.6733
1.0228,-3.0629
1.0233,0.9046
1.0238,7.0085
1.0243,10.6708
1.0248,10.0604
1.0253,8.2293
1.0258,7.3137
1.0263,7.9241
1.0268,7.9241
1.0273,7.0085
1.0278,6.3981
1.0283,6.3981
1.0288,5.7877
1.0293,3.3462
1.0298,1.2098
1.0303,0.9046
1.0308,2.1254
1.0313,2.7358
1.0318,2.1254
1.0323,2.4306
1.0328,3.6514
1.0333,4.2617
1.0338,2.7358
1.0343,0.9046
1.0348,0.2942
1.0353,-0.3162
1.0358,-2.4525
1.0363,-4.2837
1.0368,-3.3681
1.0373,-0.3162
1.0378,1.2098
1.0383,0.5994
1.0388,-0.0110
1.0393,0.2942
1.0398,2.4306
1.0403,4.2617
1.0408,5.7877
1.0413,5.7877
1.0418,3.3462
1.0423,-1.8421
1.0428,-6.7253
1.0433,-5.1993
1.0438,2.1254
1.0443,9.4500
1.0448,10.3656
1.0453,6.0929
1.0458,2.7358
1.0463,3.6514
1.0468,4.8721
1.0473,3.3462
1.0478,-0.0110
1.0483,-0.9266
1.0488,0.5994
1.0493,3.0410
1.0498,4.5669
1.0503,5.1773
1.0508,4.8721
1.0513,3.9565
1.0518,2.4306
1.0523,1.2098
1.0528,0.5994
1.0533,0.2942
1.0538,-0.0110
1.0543,-0.0110
1.0548,-0.3162
1.0553,-1.5370
1.0558,-2.7577
1.0563,-3.3681
1.0568,-3.6733
1.0573,-3.9785
1.0578,-3.3681
1.0583,-2.1473
1.0588,-0.3162
1.0593,-0.0110
1.0598,-0.6214
1.0603,-1.5370
1.0608,-1.8421
1.0613,-2.1473
1.0618,-3.0629
1.0623,-3.9785
1.0628,-4.5889
1.0633,-4.2837
1.0638,-3.3681
1.0643,-2.1473
1.0648,-0.9266
1.0653,-0.9266
1.0658,-3.0629
1.0663,-7.3356
1.0668,-10.3876
1.0673,-10.3876
1.0678,-7.6408
1.0683,-4.2837
1.0688,-3.0629
1.0693,-3.3681
1.0698,-4.5889
1.0703,-5.1993
1.0708,-4.8941
1.0713,-3.9785
1.0718,-3.3681
1.0723,-3.3681
1.0728,-4.8941
1.0733,-6.7253
1.0738,-7.9460
1.0743,-7.6408
1.0748,-6.4201
1.0753,-4.5889
1.0758,-2.1473
1.0763,-0.0110
1.0768,0.9046
1.0773,-0.0110
1.0778,-2.7577
1.0783,-4.8941
1.0788,-5.1993
1.0793,-3.6733
1.0798,-2.7577
1.0803,-3.6733
1.0808,-6.4201
1.0813,-7.6408
1.0818,-6.1149
1.0823,-2.7577
1.0828,-1.2318
1.0833,-2.1473
1.0838,-3.3681
1.0843,-3.0629
1.0848,-2.1473
1.0853,-2.1473
1.0858,-3.0629
1.0863,-3.6733
1.0868,-2.4525
1.0873,-0.6214
1.0878,-0.0110
1.0883,-0.9266
1.0888,-2.7577
1.0893,-3.3681
1.0898,-2.4525
1.0903,-1.2318
1.0908,-0.9266
1.0913,-1.5370
1.0918,-2.1473
1.0923,-2.4525
1.0928,-2.7577
1.0933,-3.0629
1.0938,-2.7577
1.0943,-2.4525
1.0948,-2.4525
1.0953,-2.4525
1.0958,-2.7577
1.0963,-3.3681
1.0968,-3.0629
1.0973,-2.4525
1.0978,-1.5370
1.0983,-1.8421
1.0988,-2.1473
1.0993,-1.5370
1.0998,-0.3162
1.1003,-0.0110
1.1008,-0.6214
1.1013,-0.6214
1.1018,-0.0110
1.1023,-0.0110
1.1028,-0.6214
1.1033,-0.9266
1.1038,0.5994
1.1043,1.8202
1.1048,1.2098
1.1053,-0.3162
1.1058,-0.9266
1.1063,-0.3162
1.1068,-0.0110
1.1073,-0.0110
1.1078,-0.0110
1.1083,0.5994
1.1088,1.2098
1.1093,1.2098
1.1098,0.5994
1.1103,-0.0110
1.1108,0.2942
1.1113,1.5150
1.1118,3.0410
1.1123,3.9565
1.1128,3.6514
1.1133,2.4306
1.1138,1.2098
1.1143,0.5994
1.1148,1.2098
1.1153,2.7358
1.1158,5.4825
1.1163,7.3137
1.1168,7.0085
1.1173,5.1773
1.1178,3.6514
1.1183,3.0410
1.1188,2.4306
1.1193,0.9046
1.1198,-0.9266
1.1203,-1.8421
1.1208,-1.2318
1.1213,-1.2318
1.1218,-2.1473
1.1223,-1.8421
1.1228,0.2942
1.1233,3.3462
1.1238,4.5669
1.1243,4.5669
1.1248,4.8721
1.1253,5.7877
1.1258,5.7877
1.1263,4.5669
1.1268,3.3462
1.1273,3.6514
1.1278,4.2617
1.1283,4.5669
1.1288,4.2617
1.1293,3.6514
1.1298,3.3462
1.1303,3.3462
1.1308,3.3462
1.1313,3.0410
1.1318,2.1254
1.1323,1.8202
1.1328,2.1254
1.1333,2.7358
1.1338,2.4306
1.1343,1.8202
1.1348,2.4306
1.1353,3.6514
1.1358,3.6514
1.1363,1.8202
1.1368,0.5994
1.1373,0.5994
1.1378,0.9046
1.1383,0.2942
1.1388,-0.0110
1.1393,-0.0110
1.1398,-0.0110
1.1403,-0.0110
1.1408,-0.6214
1.1413,-1.5370
1.1418,-1.8421
1.1423,-1.2318
1.1428,0.5994
1.1433,2.4306
1.1438,2.7358
1.1443,1.8202
1.1448,1.2098
1.1453,1.5150
1.1458,1.5150
1.1463,1.5150
1.1468,1.5150
1.1473,1.8202
1.1478,0.9046
1.1483,-0.6214
1.1488,-0.9266
1.1493,0.5994
1.1498,3.6514
1.1503,4.8721
1.1508,4.5669
1.1513,4.2617
1.1518,5.7877
1.1523,7.0085
1.1528,7.0085
1.1533,5.7877
1.1538,5.1773
1.1543,5.4825
1.1548,6.0929
1.1553,5.1773
1.1558,3.6514
1.1563,2.1254
1.1568,2.1254
1.1573,3.0410
1.1578,4.5669
1.1583,5.7877
1.1588,6.0929
1.1593,6.0929
1.1598,6.3981
1.1603,7.6189
1.1608,7.9241
1.1613,7.3137
1.1618,7.6189
1.1623,7.9241
1.1628,6.7033
1.1633,3.0410
1.1638,0.2942
1.1643,0.9046
1.1648,3.0410
1.1653,3.3462
1.1658,1.2098
1.1663,-0.0110
1.1668,-0.3162
1.1673,-0.9266
1.1678,-3.0629
1.1683,-4.8941
1.1688,-4.5889
1.1693,-2.7577
1.1698,-1.5370
1.1703,-0.6214
1.1708,-0.0110
1.1713,-0.0110
1.1718,-1.2318
1.1723,-1.8421
1.1728,-1.2318
1.1733,-0.6214
1.1738,-1.2318
1.1743,-2.7577
1.1748,-3.9785
1.1753,-4.2837
1.1758,-5.1993
1.1763,-6.4201
1.1768,-5.8097
1.1773,-3.3681
1.1778,-0.3162
1.1783,0.9046
1.1788,0.2942
1.1793,-0.0110
1.1798,-0.6214
1.1803,-0.6214
1.1808,-0.6214
1.1813,-0.3162
1.1818,-0.0110
1.1823,-0.6214
1.1828,-1.5370
1.1833,-2.4525
1.1838,-1.8421
1.1843,-0.6214
1.1848,-0.9266
1.1853,-1.8421
1.1858,-2.1473
1.1863,-0.9266
1.1868,-1.2318
1.1873,-3.6733
1.1878,-5.8097
1.1883,-4.8941
1.1888,-3.3681
1.1893,-3.6733
1.1898,-5.8097
1.1903,-5.8097
1.1908,-2.7577
1.1913,-0.3162
1.1918,-1.2318
1.1923,-3.9785
1.1928,-5.1993
1.1933,-3.9785
1.1938,-2.4525
1.1943,-2.4525
1.1948,-3.6733
1.1953,-5.8097
1.1958,-7.9460
1.1963,-8.5564
1.1968,-7.9460
1.1973,-8.2512
1.1978,-9.1668
1.1983,-10.0824
1.1988,-9.1668
1.1993,-8.2512
1.1998,-8.2512
1.2003,-8.8616
1.2008,-8.8616
1.2013,-8.2512
1.2018,-7.3356
1.2023,-6.1149
1.2028,-3.9785
1.2033,-2.1473
1.2038,-1.5370
1.2043,-2.4525
1.2048,-3.0629
1.2053,-3.9785
1.2058,-4.8941
1.2063,-4.5889
1.2068,-2.7577
1.2073,-0.9266
1.2078,-0.6214
1.2083,-2.1473
1.2088,-3.9785
1.2093,-4.8941
1.2098,-5.8097
1.2103,-6.1149
1.2108,-4.8941
1.2113,-3.0629
1.2118,-2.1473
1.2123,-2.4525
1.2128,-2.7577
1.2133,-1.8421
1.2138,-0.0110
1.2143,-0.0110
1.2148,-3.0629
1.2153,-7.9460
1.2158,-11.9136
1.2163,-11.9136
1.2168,-8.8616
1.2173,-5.5045
1.2178,-4.2837
1.2183,-4.5889
1.2188,-3.3681
1.2193,-1.5370
1.2198,-0.0110
1.2203,1.2098
1.2208,2.1254
1.2213,2.7358
1.2218,3.0410
1.2223,3.6514
1.2228,4.8721
1.2233,5.1773
1.2238,3.3462
1.2243,1.5150
1.2248,2.4306
1.2253,4.5669
1.2258,5.1773
1.2263,3.9565
1.2268,3.6514
1.2273,4.8721
1.2278,6.3981
1.2283,7.3137
1.2288,7.6189
1.2293,7.9241
1.2298,7.3137
1.2303,5.1773
1.2308,3.3462
1.2313,1.8202
1.2318,-0.0110
1.2323,-2.7577
1.2328,-6.1149
1.2333,-8.5564
1.2338,-10.3876
1.2343,-10.9980
1.2348,-10.0824
1.2353,-6.7253
1.2358,-2.1473
1.2363,2.1254
1.2368,7.3137
1.2373,12.1968
1.2378,15.5539
1.2383,16.1643
1.2388,14.0280
1.2393,10.6708
1.2398,7.6189
1.2403,6.0929
1.2408,7.9241
1.2413,12.1968
1.2418,15.8591
1.2423,16.4695
1.2428,15.2487
1.2433,14.6384
1.2438,14.3332
1.2443,14.3332
1.2448,14.9435
1.2453,17.6903
1.2458,20.4370
1.2463,20.7422
1.2468,18.3007
1.2473,14.3332
1.2478,8.5345
1.2483,0.5994
1.2488,-5.8097
1.2493,-8.5564
1.2498,-6.7253
1.2503,-3.9785
1.2508,-2.7577
1.2513,-3.3681
1.2518,-4.5889
1.2523,-6.1149
1.2528,-6.1149
1.2533,-4.2837
1.2538,-2.7577
1.2543,-2.4525
1.2548,-0.9266
1.2553,3.0410
1.2558,6.3981
1.2563,2.7358
1.2568,-6.4201
1.2573,-14.9655
1.2578,-17.4071
1.2583,-16.4915
1.2588,-15.5759
1.2593,-13.4395
1.2598,-8.5564
1.2603,-3.9785
1.2608,-2.4525
1.2613,-0.9266
1.2618,3.0410
1.2623,7.9241
1.2628,8.2293
1.2633,4.5669
1.2638,2.1254
1.2643,2.7358
1.2648,3.6514
1.2653,3.0410
1.2658,1.8202
1.2663,0.9046
1.2668,-0.9266
1.2673,-5.5045
1.2678,-10.6928
1.2683,-13.7447
1.2688,-14.0499
1.2693,-13.4395
1.2698,-12.8291
1.2703,-12.8291
1.2708,-12.2188
1.2713,-10.9980
1.2718,-7.9460
1.2723,-4.8941
1.2728,-1.8421
1.2733,2.1254
1.2738,9.7552
1.2743,19.8267
1.2748,28.3721
1.2753,33.2552
1.2758,35.3916
1.2763,35.0864
1.2768,30.5085
1.2773,21.0474
1.2778,10.0604
1.2783,1.8202
1.2788,-1.5370
1.2793,-1.8421
1.2798,-0.0110
1.2803,1.8202
1.2808,2.4306
1.2813,0.9046
1.2818,-1.8421
1.2823,-4.5889
1.2828,-6.4201
1.2833,-6.1149
1.2838,-2.1473
1.2843,3.0410
1.2848,7.9241
1.2853,11.2812
1.2858,13.7228
1.2863,15.8591
1.2868,15.5539
1.2873,13.4176
1.2878,10.3656
1.2883,5.4825
1.2888,-2.7577
1.2893,-14.0499
1.2898,-22.5954
1.2903,-23.5110
1.2908,-19.2382
1.2913,-13.4395
1.2918,-7.0305
1.2923,0.5994
1.2928,7.9241
1.2933,10.3656
1.2938,7.0085
1.2943,1.2098
1.2948,-2.4525
1.2953,-3.3681
1.2958,-3.3681
1.2963,-4.5889
1.2968,-6.7253
1.2973,-8.5564
1.2978,-7.9460
1.2983,-5.8097
1.2988,-4.5889
1.2993,-5.1993
1.2998,-6.4201
1.3003,-7.3356
1.3008,-7.9460
1.3013,-9.4720
1.3018,-11.6084
1.3023,-13.1343
1.3028,-13.4395
1.3033,-12.8291
1.3038,-11.3032
1.3043,-10.0824
1.3048,-9.4720
1.3053,-8.8616
1.3058,-7.6408
1.3063,-5.8097
1.3068,-4.8941
1.3073,-4.8941
1.3078,-4.8941
1.3083,-3.9785
1.3088,-2.4525
1.3093,-0.9266
1.3098,0.2942
1.3103,1.5150
1.3108,1.5150
1.3113,0.9046
1.3118,1.2098
1.3123,2.4306
1.3128,4.2617
1.3133,5.7877
1.3138,7.0085
1.3143,7.9241
1.3148,7.3137
1.3153,5.4825
1.3158,5.1773
1.3163,6.0929
1.3168,6.7033
1.3173,5.1773
1.3178,3.6514
1.3183,2.7358
1.3188,0.9046
1.3193,-2.7577
1.3198,-8.2512
1.3203,-11.3032
1.3208,-10.3876
1.3213,-8.2512
1.3218,-6.7253
1.3223,-6.7253
1.3228,-6.7253
1.3233,-6.7253
1.3238,-6.7253
1.3243,-7.3356
1.3248,-8.2512
1.3253,-7.9460
1.3258,-6.4201
1.3263,-4.5889
1.3268,-3.6733
1.3273,-2.7577
1.3278,-0.6214
1.3283,1.8202
1.3288,3.6514
1.3293,3.3462
1.3298,2.7358
1.3303,1.8202
1.3308,-0.0110
1.3313,-2.1473
1.3318,-3.3681
1.3323,-2.4525
1.3328,-0.9266
1.3333,-0.0110
1.3338,0.9046
1.3343,3.3462
1.3348,7.0085
1.3353,10.3656
1.3358,12.8072
1.3363,14.3332
1.3368,14.9435
1.3373,14.3332
1.3378,12.1968
1.3383,8.8397
1.3388,3.9565
1.3393,-1.8421
1.3398,-7.6408
1.3403,-11.3032
1.3408,-13.7447
1.3413,-15.2707
1.3418,-15.2707
1.3423,-13.1343
1.3428,-10.6928
1.3433,-8.2512
1.3438,-5.1993
1.3443,-0.6214
1.3448,3.0410
1.3453,3.3462
1.3458,0.2942
1.3463,-1.2318
1.3468,-0.0110
1.3473,2.1254
1.3478,3.3462
1.3483,4.2617
1.3488,6.0929
1.3493,7.3137
1.3498,6.3981
1.3503,6.0929
1.3508,7.6189
1.3513,9.1449
1.3518,7.3137
1.3523,3.9565
1.3528,3.3462
1.3533,6.0929
1.3538,9.1449
1.3543,9.7552
1.3548,10.0604
1.3553,11.5864
1.3558,12.8072
1.3563,11.2812
1.3568,8.2293
1.3573,5.4825
1.3578,3.6514
1.3583,1.8202
1.3588,-0.6214
1.3593,-3.3681
1.3598,-4.8941
1.3603,-4.8941
1.3608,-4.8941
1.3613,-6.7253
1.3618,-10.3876
1.3623,-13.1343
1.3628,-12.8291
1.3633,-9.7772
1.3638,-7.3356
1.3643,-6.4201
1.3648,-5.8097
1.3653,-5.1993
1.3658,-4.8941
1.3663,-5.5045
1.3668,-5.1993
1.3673,-4.2837
1.3678,-3.0629
1.3683,-1.5370
1.3688,0.5994
1.3693,3.3462
1.3698,3.9565
1.3703,3.0410
1.3708,2.7358
1.3713,4.5669
1.3718,5.4825
1.3723,4.5669
1.3728,2.4306
1.3733,1.5150
1.3738,1.5150
1.3743,1.8202
1.3748,2.1254
1.3753,2.1254
1.3758,1.2098
1.3763,-0.0110
1.3768,0.5994
1.3773,2.1254
1.3778,1.5150
1.3783,-0.0110
1.3788,-0.0110
1.3793,2.7358
1.3798,5.4825
1.3803,6.0929
1.3808,5.4825
1.3813,5.1773
1.3818,5.7877
1.3823,4.8721
1.3828,3.6514
1.3833,3.3462
1.3838,4.2617
1.3843,4.5669
1.3848,4.2617
1.3853,3.0410
1.3858,1.8202
1.3863,-0.0110
1.3868,-0.9266
1.3873,-1.2318
1.3878,-1.2318
1.3883,-1.8421
1.3888,-2.7577
1.3893,-3.6733
1.3898,-3.6733
1.3903,-2.4525
1.3908,-0.0110
1.3913,3.3462
1.3918,5.7877
1.3923,5.7877
1.3928,5.4825
1.3933,6.3981
1.3938,7.9241
1.3943,7.9241
1.3948,5.7877
1.3953,2.7358
1.3958,0.5994
1.3963,-0.3162
1.3968,-1.5370
1.3973,-3.9785
1.3978,-7.9460
1.3983,-11.3032
1.3988,-11.6084
1.3993,-8.5564
1.3998,-4.5889
1.4003,-3.0629
1.4008,-2.7577
1.4013,-2.4525
1.4018,-2.1473
1.4023,-2.4525
1.4028,-2.1473
1.4033,-1.2318
1.4038,-0.3162
1.4043,-0.0110
1.4048,-0.3162
1.4053,-1.5370
1.4058,-3.9785
1.4062,-7.6408
1.4067,-9.4720
1.4072,-9.4720
1.4077,-8.8616
1.4082,-9.4720
1.4087,-8.5564
1.4092,-3.0629
1.4097,6.0929
1.4102,14.3332
1.4107,17.6903
1.4112,17.0799
1.4117,14.6384
1.4122,11.5864
1.4127,8.8397
1.4132,6.0929
1.4137,1.5150
1.4142,-3.3681
1.4147,-5.1993
1.4152,-0.9266
1.4157,6.0929
1.4162,10.3656
1.4167,9.1449
1.4172,4.5669
1.4177,-0.6214
1.4182,-4.8941
1.4187,-7.0305
1.4192,-5.8097
1.4197,-2.4525
1.4202,0.9046
1.4207,3.6514
1.4212,4.5669
1.4217,2.7358
1.4222,-0.3162
1.4227,-2.1473
1.4232,-1.2318
1.4237,-0.3162
1.4242,-2.7577
1.4247,-6.1149
1.4252,-6.7253
1.4257,-3.0629
1.4262,0.2942
1.4267,1.5150
1.4272,0.9046
1.4277,-0.0110
1.4282,-0.3162
1.4287,-0.0110
1.4292,1.5150
1.4297,3.0410
1.4302,2.7358
1.4307,0.5994
1.4312,-0.3162
1.4317,0.2942
1.4322,2.4306
1.4327,4.2617
1.4332,4.5669
1.4337,3.3462
1.4342,0.9046
1.4347,-0.9266
1.4352,-2.1473
1.4357,-2.4525
1.4362,-1.5370
1.4367,0.2942
1.4372,2.7358
1.4377,5.1773
1.4382,6.3981
1.4387,7.0085
1.4392,7.0085
1.4397,4.5669
1.4402,-1.2318
1.4407,-7.6408
1.4412,-10.3876
1.4417,-10.0824
1.4422,-9.1668
1.4427,-10.3876
1.4432,-12.2188
1.4437,-13.4395
1.4442,-13.7447
1.4447,-13.7447
1.4452,-12.5240
1.4457,-10.9980
1.4462,-9.1668
1.4467,-6.4201
1.4472,-2.1473
1.4477,0.5994
1.4482,-1.8421
1.4487,-10.3876
1.4492,-18.9330
1.4497,-21.0694
1.4502,-17.7123
1.4507,-14.3551
1.4512,-13.4395
1.4517,-13.4395
1.4522,-11.9136
1.4527,-8.8616
1.4532,-6.7253
1.4537,-6.7253
1.4542,-8.8616
1.4547,-10.3876
1.4552,-9.1668
1.4557,-5.5045
1.4562,-1.2318
1.4567,0.9046
1.4572,3.6514
1.4577,7.0085
1.4582,10.6708
1.4587,13.1124
1.4592,15.2487
1.4597,17.9955
1.4602,20.7422
1.4607,20.7422
1.4612,18.6059
1.4617,17.9955
1.4622,20.7422
1.4627,23.4890
1.4632,22.5734
1.4637,19.2163
1.4642,15.5539
1.4647,12.1968
1.4652,8.8397
1.4657,5.7877
1.4662,4.5669
1.4667,4.2617
1.4672,2.4306
1.4677,-0.0110
1.4682,-0.0110
1.4687,1.8202
1.4692,3.0410
1.4697,2.1254
1.4702,0.5994
1.4707,0.9046
1.4712,1.8202
1.4717,1.5150
1.4722,0.2942
1.4727,-0.0110
1.4732,-0.9266
1.4737,-2.1473
1.4742,-1.8421
1.4747,1.8202
1.4752,7.6189
1.4757,10.9760
1.4762,10.9760
1.4767,10.0604
1.4772,10.0604
1.4777,10.0604
1.4782,7.9241
1.4787,4.2617
1.4792,-0.0110
1.4797,-4.8941
1.4802,-9.7772
1.4807,-13.1343
1.4812,-13.7447
1.4817,-12.5240
1.4822,-10.0824
1.4827,-5.5045
1.4832,0.5994
1.4837,5.4825
1.4842,6.0929
1.4847,4.2617
1.4852,3.3462
1.4857,4.2617
1.4862,4.8721
1.4867,3.6514
1.4872,0.9046
1.4877,-1.5370
1.4882,-3.3681
1.4887,-2.7577
1.4892,-0.0110
1.4897,3.3462
1.4902,4.2617
1.4907,2.4306
1.4912,0.9046
1.4917,0.5994
1.4922,-0.9266
1.4927,-5.1993
1.4932,-8.2512
1.4937,-7.3356
1.4942,-5.1993
1.4947,-6.1149
1.4952,-8.8616
1.4957,-9.4720
1.4962,-6.1149
1.4967,-2.1473
1.4972,-0.9266
1.4977,-1.8421
1.4982,-2.7577
1.4987,-2.1473
1.4992,-0.0110
1.4997,3.3462
1.5002,5.7877
1.5007,5.7877
1.5012,3.9565
1.5017,3.3462
1.5022,5.1773
1.5027,8.5345
1.5032,10.6708
1.5037,10.6708
1.5042,7.9241
1.5047,1.8202
1.5052,-5.8097
1.5057,-12.2188
1.5062,-14.3551
1.5067,-14.0499
1.5072,-14.0499
1.5077,-16.4915
1.5082,-19.2382
1.5087,-22.5954
1.5092,-27.1733
1.5097,-34.8031
1.5102,-45.1798
1.5107,-56.1668
1.5112,-62.2706
1.5117,-57.9979
1.5122,-42.1278
1.5127,-22.2902
1.5132,-7.9460
1.5137,-1.2318
1.5142,3.6514
1.5147,10.0604
1.5152,15.2487
1.5157,19.2163
1.5162,27.1513
1.5167,39.6643
1.5172,47.5993
1.5177,44.8526
1.5182,36.6123
1.5187,33.8656
1.5192,34.7812
1.5197,28.6773
1.5202,13.7228
1.5207,0.2942
1.5212,-4.2837
1.5217,-4.5889
1.5222,-3.9785
1.5227,-0.3162
1.5232,7.3137
1.5237,14.0280
1.5242,15.2487
1.5247,15.2487
1.5252,19.2163
1.5257,24.7098
1.5262,27.1513
1.5267,27.7617
1.5272,31.7292
1.5277,38.1383
1.5282,40.5799
1.5287,39.0539
1.5292,38.7487
1.5297,39.9695
1.5302,35.3916
1.5307,20.7422
1.5312,3.9565
1.5317,-4.8941
1.5322,-6.4201
1.5327,-7.6408
1.5332,-12.8291
1.5337,-17.7123
1.5342,-19.5434
1.5347,-19.5434
1.5352,-19.8486
1.5357,-17.4071
1.5362,-10.9980
1.5367,-4.8941
1.5372,-4.8941
1.5377,-10.6928
1.5382,-19.5434
1.5387,-32.3616
1.5392,-50.9784
1.5397,-69.9005
1.5402,-79.0563
1.5407,-75.3940
1.5412,-65.0174
1.5417,-53.7252
1.5422,-39.0759
1.5427,-18.0175
1.5432,2.7358
1.5437,11.2812
1.5442,4.8721
1.5447,-6.7253
1.5452,-13.4395
1.5457,-12.8291
1.5462,-9.4720
1.5467,-6.7253
1.5472,-5.1993
1.5477,-5.8097
1.5482,-7.6408
1.5487,-7.0305
1.5492,-0.0110
1.5497,9.4500
1.5502,15.2487
1.5507,13.7228
1.5512,10.3656
1.5517,10.3656
1.5522,14.6384
1.5527,17.3851
1.5532,16.1643
1.5537,12.8072
1.5542,11.2812
1.5547,11.2812
1.5552,10.9760
1.5557,10.6708
1.5562,11.5864
1.5567,13.1124
1.5572,13.1124
1.5577,11.2812
1.5582,10.0604
1.5587,12.1968
1.5592,16.1643
1.5597,17.9955
1.5602,16.1643
1.5607,11.2812
1.5612,5.4825
1.5617,2.1254
1.5622,1.5150
1.5627,2.4306
1.5632,3.3462
1.5637,3.3462
1.5642,3.6514
1.5647,3.6514
1.5652,3.3462
1.5657,2.7358
1.5662,2.1254
1.5667,1.8202
1.5672,1.8202
1.5677,1.2098
1.5682,0.9046
1.5687,1.5150
1.5692,2.7358
1.5697,4.5669
1.5702,5.7877
1.5707,4.8721
1.5712,3.3462
1.5717,2.4306
1.5722,3.0410
1.5727,4.2617
1.5732,6.0929
1.5737,8.5345
1.5742,9.4500
1.5747,6.3981
1.5752,-0.0110
1.5757,-4.8941
1.5762,-6.1149
1.5767,-7.3356
1.5772,-12.2188
1.5777,-17.4071
1.5782,-18.0175
1.5787,-14.6603
1.5792,-13.4395
1.5797,-15.5759
1.5802,-16.4915
1.5807,-14.3551
1.5812,-13.7447
1.5817,-19.2382
1.5822,-27.7837
1.5827,-32.0564
1.5832,-29.3096
1.5837,-22.2902
1.5842,-14.6603
1.5847,-9.4720
1.5852,-7.3356
1.5857,-7.3356
1.5862,-5.1993
1.5867,0.5994
1.5872,6.7033
1.5877,8.5345
1.5882,6.3981
1.5887,4.2617
1.5892,3.9565
1.5897,3.6514
1.5902,2.4306
1.5907,3.6514
1.5912,7.0085
1.5917,9.1449
1.5922,8.2293
1.5927,8.2293
1.5932,12.5020
1.5937,17.6903
1.5942,17.6903
1.5947,12.8072
1.5952,7.0085
1.5957,3.6514
1.5962,1.5150
1.5967,1.8202
1.5972,4.2617
1.5977,6.3981
1.5982,5.7877
1.5987,4.5669
1.5992,6.3981
1.5997,10.3656
1.6002,12.1968
1.6007,11.2812
1.6012,11.2812
1.6017,12.8072
1.6022,14.0280
1.6027,12.5020
1.6032,9.4500
1.6037,6.0929
1.6042,2.7358
1.6047,0.5994
1.6052,-0.0110
1.6057,-0.3162
1.6062,-1.5370
1.6067,-1.8421
1.6072,-1.2318
1.6077,-2.7577
1.6082,-7.3356
1.6087,-10.6928
1.6092,-8.2512
1.6097,-3.3681
1.6102,-0.9266
1.6107,-1.2318
1.6112,-1.2318
1.6117,-2.1473
1.6122,-6.7253
1.6127,-12.2188
1.6132,-12.8291
1.6137,-9.4720
1.6142,-9.4720
1.6147,-13.7447
1.6152,-17.1019
1.6157,-14.9655
1.6162,-10.0824
1.6167,-7.0305
1.6172,-5.5045
1.6177,-3.9785
1.6182,-3.0629
1.6187,-3.6733
1.6192,-1.5370
1.6197,7.3137
1.6202,21.6578
1.6207,34.1708
1.6212,39.9695
1.6217,40.5799
1.6222,40.5799
1.6227,40.5799
1.6232,37.2227
1.6237,29.8981
1.6242,21.3526
1.6247,15.5539
1.6252,12.1968
1.6257,9.1449
1.6262,6.7033
1.6267,6.0929
1.6272,6.3981
1.6277,7.0085
1.6282,7.6189
1.6287,8.8397
1.6292,8.8397
1.6297,5.1773
1.6302,-2.1473
1.6307,-11.9136
1.6312,-21.6798
1.6317,-31.4460
1.6322,-41.2122
1.6327,-49.7577
1.6332,-53.1148
1.6337,-47.9265
1.6342,-35.4135
1.6347,-20.4590
1.6352,-10.3876
1.6357,-6.7253
1.6362,-6.1149
1.6367,-4.8941
1.6372,-2.7577
1.6377,-0.9266
1.6382,-0.3162
1.6387,-0.9266
1.6392,-3.6733
1.6397,-7.9460
1.6402,-10.3876
1.6407,-7.6408
1.6412,-3.0629
1.6417,-1.5370
1.6422,-4.2837
1.6427,-7.3356
1.6432,-7.0305
1.6437,-3.3681
1.6442,-0.0110
1.6447,1.2098
1.6452,-0.0110
1.6457,-1.8421
1.6462,-2.1473
1.6467,-0.0110
1.6472,1.8202
1.6477,2.4306
1.6482,2.1254
1.6487,2.4306
1.6492,2.4306
1.6497,0.5994
1.6502,-1.2318
1.6507,-1.2318
1.6512,1.2098
1.6517,3.0410
1.6522,1.2098
1.6527,-2.4525
1.6532,-3.9785
1.6537,-1.8421
1.6542,0.2942
1.6547,-0.0110
1.6552,-2.7577
1.6557,-3.9785
1.6562,-3.6733
1.6567,-3.0629
1.6572,-3.6733
1.6577,-3.9785
1.6582,-3.9785
1.6587,-3.9785
1.6592,-3.9785
1.6597,-3.3681
1.6602,-1.2318
1.6607,1.2098
1.6612,3.9565
1.6617,5.4825
1.6622,5.4825
1.6627,3.0410
1.6632,-0.0110
1.6637,-1.8421
1.6642,-0.3162
1.6647,2.7358
1.6652,6.3981
1.6657,10.3656
1.6662,14.0280
1.6667,17.0799
1.6672,17.9955
1.6677,16.1643
1.6682,13.4176
1.6687,10.6708
1.6692,8.8397
1.6697,7.6189
1.6702,6.7033
1.6707,5.1773
1.6712,-0.0110
1.6717,-10.9980
1.6722,-25.0369
1.6727,-35.7187
1.6732,-36.9395
1.6737,-31.1408
1.6742,-25.0369
1.6747,-22.5954
1.6752,-21.9850
1.6757,-19.2382
1.6762,-13.1343
1.6767,-7.3356
1.6772,-3.3681
1.6777,-1.5370
1.6782,-0.3162
1.6787,0.9046
1.6792,3.0410
1.6797,7.0085
1.6802,12.1968
1.6807,16.1643
1.6812,16.4695
1.6817,13.4176
1.6822,10.9760
1.6827,10.6708
1.6832,10.9760
1.6837,10.0604
1.6842,9.1449
1.6847,10.0604
1.6852,10.0604
1.6857,7.6189
1.6862,5.1773
1.6867,7.3137
1.6872,12.8072
1.6877,14.9435
1.6882,10.6708
1.6887,4.2617
1.6892,1.8202
1.6897,2.7358
1.6902,4.2617
1.6907,3.3462
1.6912,1.2098
1.6917,-1.2318
1.6922,-2.7577
1.6927,-0.9266
1.6932,4.2617
1.6937,9.4500
1.6942,11.5864
1.6947,9.7552
1.6952,6.0929
1.6957,2.1254
1.6962,-1.5370
1.6967,-4.2837
1.6972,-5.8097
1.6977,-6.7253
1.6982,-7.3356
1.6987,-6.1149
1.6992,-3.0629
1.6997,-0.6214
1.7002,-0.0110
1.7007,0.2942
1.7012,1.8202
1.7017,3.3462
1.7022,3.6514
1.7027,5.1773
1.7032,9.7552
1.7037,17.3851
1.7042,25.3202
1.7047,32.6448
1.7052,39.9695
1.7057,45.4630
1.7062,46.3786
1.7067,43.0214
1.7072,37.5279
1.7077,30.8137
1.7082,22.2682
1.7087,12.8072
1.7092,5.1773
1.7097,0.9046
1.7102,-0.3162
1.7107,1.5150
1.7112,8.5345
1.7117,17.9955
1.7122,22.5734
1.7127,18.6059
1.7132,10.0604
1.7137,5.7877
1.7142,9.4500
1.7147,16.4695
1.7152,18.3007
1.7157,10.6708
1.7162,-1.5370
1.7167,-11.3032
1.7172,-14.0499
1.7177,-14.3551
1.7182,-17.7123
1.7187,-22.9006
1.7192,-25.6473
1.7197,-23.5110
1.7202,-17.7123
1.7207,-9.4720
1.7212,-0.0110
1.7217,7.0085
1.7222,8.5345
1.7227,6.0929
1.7232,5.1773
1.7237,7.9241
1.7242,10.9760
1.7247,11.2812
1.7252,8.8397
1.7257,5.7877
1.7262,3.0410
1.7267,1.2098
1.7272,1.5150
1.7277,3.9565
1.7282,7.0085
1.7287,8.5345
1.7292,7.9241
1.7297,6.3981
1.7302,4.5669
1.7307,3.0410
1.7312,0.2942
1.7317,-3.3681
1.7322,-6.1149
1.7327,-5.8097
1.7332,-3.6733
1.7337,-1.8421
1.7342,-2.4525
1.7347,-3.6733
1.7352,-4.8941
1.7357,-6.4201
1.7362,-7.0305
1.7367,-4.5889
1.7372,0.2942
1.7377,2.7358
1.7382,0.2942
1.7387,-2.7577
1.7392,-2.4525
1.7397,-0.0110
1.7402,0.2942
1.7407,-1.2318
1.7412,-1.5370
1.7417,0.5994
1.7422,2.4306
1.7427,2.1254
1.7432,0.2942
1.7437,-2.7577
1.7442,-9.7772
1.7447,-20.4590
1.7452,-28.6993
1.7457,-29.6148
1.7462,-24.4265
1.7467,-18.0175
1.7472,-14.6603
1.7477,-15.8811
1.7482,-22.5954
1.7487,-33.8876
1.7492,-44.8746
1.7497,-50.6733
1.7502,-51.2836
1.7507,-50.0629
1.7512,-48.8421
1.7517,-45.4849
1.7522,-37.5499
1.7527,-26.2577
1.7532,-15.5759
1.7537,-7.3356
1.7542,-1.8421
1.7547,1.5150
1.7552,3.0410
1.7557,2.1254
1.7562,-0.3162
1.7567,-3.0629
1.7572,-4.5889
1.7577,-4.5889
1.7582,-4.5889
1.7587,-6.1149
1.7592,-9.1668
1.7597,-12.5240
1.7602,-15.2707
1.7607,-16.1863
1.7612,-14.9655
1.7617,-12.2188
1.7622,-10.3876
1.7627,-10.3876
1.7632,-11.6084
1.7637,-11.6084
1.7642,-8.8616
1.7647,-5.1993
1.7652,-2.4525
1.7657,-0.9266
1.7662,0.2942
1.7667,1.5150
1.7672,1.8202
1.7677,0.9046
1.7682,1.2098
1.7687,3.6514
1.7692,6.7033
1.7697,7.0085
1.7702,4.2617
1.7707,0.9046
1.7712,-0.6214
1.7717,-0.9266
1.7722,-0.9266
1.7727,-0.6214
1.7732,-0.0110
1.7737,0.9046
1.7742,1.2098
1.7747,0.9046
1.7752,0.5994
1.7757,0.2942
1.7762,-0.0110
1.7767,-0.3162
1.7772,0.2942
1.7777,0.9046
1.7782,0.9046
1.7787,1.2098
1.7792,3.0410
1.7797,4.8721
1.7802,3.9565
1.7807,1.2098
1.7812,-0.9266
1.7817,-2.1473
1.7822,-3.0629
1.7827,-4.5889
1.7832,-3.9785
1.7837,-0.9266
1.7842,0.5994
1.7847,-0.6214
1.7852,-3.6733
1.7857,-4.5889
1.7862,-3.6733
1.7867,-3.0629
1.7872,-4.2837
1.7877,-6.1149
1.7882,-7.6408
1.7887,-7.9460
1.7892,-5.1993
1.7897,-0.0110
1.7902,3.6514
1.7907,3.9565
1.7912,1.8202
1.7917,1.2098
1.7922,3.6514
1.7927,6.7033
1.7932,6.3981
1.7937,3.0410
1.7942,-0.0110
1.7947,-0.3162
1.7952,2.1254
1.7957,4.2617
1.7962,4.2617
1.7967,3.3462
1.7972,3.9565
1.7977,5.4825
1.7982,4.8721
1.7987,2.1254
1.7992,0.5994
1.7997,1.2098
1.8002,1.5150
1.8007,0.5994
1.8012,-0.3162
1.8017,-0.0110
1.8022,2.1254
1.8027,5.4825
1.8032,8.8397
1.8037,10.6708
1.8042,10.3656
1.8047,10.6708
1.8052,14.6384
1.8057,18.9111
1.8062,17.9955
1.8067,11.8916
1.8072,7.9241
1.8077,8.8397
1.8082,9.7552
1.8087,7.0085
1.8092,3.9565
1.8097,3.9565
1.8102,5.4825
1.8107,4.8721
1.8112,4.2617
1.8117,6.0929
1.8122,7.3137
1.8127,4.2617
1.8132,-0.3162
1.8137,-0.9266
1.8142,2.4306
1.8147,5.4825
1.8152,5.1773
1.8157,4.5669
1.8162,4.5669
1.8167,2.4306
1.8172,-2.4525
1.8177,-7.0305
1.8182,-7.3356
1.8187,-3.0629
1.8192,2.4306
1.8197,6.3981
1.8202,5.4825
1.8207,0.5994
1.8212,-4.2837
1.8217,-4.5889
1.8222,-0.0110
1.8227,7.6189
1.8232,16.7747
1.8237,25.0150
1.8242,28.9825
1.8247,27.4565
1.8252,23.1838
1.8257,20.1318
1.8262,16.7747
1.8267,11.5864
1.8272,6.3981
1.8277,5.4825
1.8282,7.6189
1.8287,8.2293
1.8292,4.5669
1.8297,1.2098
1.8302,2.1254
1.8307,6.0929
1.8312,10.3656
1.8317,13.4176
1.8322,15.2487
1.8327,14.9435
1.8332,11.5864
1.8337,7.0085
1.8342,3.3462
1.8347,2.4306
1.8352,3.6514
1.8357,5.1773
1.8362,4.8721
1.8367,3.0410
1.8372,2.4306
1.8377,4.2617
1.8382,5.7877
1.8387,3.6514
1.8392,-0.0110
1.8397,-2.4525
1.8402,-4.8941
1.8407,-10.6928
1.8412,-15.2707
1.8417,-11.9136
1.8422,-2.7577
1.8427,2.4306
1.8432,0.9046
1.8437,0.2942
1.8442,6.3981
1.8447,13.4176
1.8452,11.8916
1.8457,4.5669
1.8462,-0.3162
1.8467,-1.5370
1.8472,-2.1473
1.8477,-3.0629
1.8482,-3.0629
1.8487,-5.1993
1.8492,-11.9136
1.8497,-18.3226
1.8502,-18.9330
1.8507,-17.4071
1.8512,-21.3746
1.8517,-31.7512
1.8522,-39.0759
1.8527,-37.8551
1.8532,-30.2252
1.8537,-18.0175
1.8542,-0.0110
1.8547,22.5734
1.8552,39.6643
1.8557,44.2422
1.8562,39.6643
1.8567,32.3396
1.8572,24.4046
1.8577,15.2487
1.8582,9.1449
1.8587,10.0604
1.8592,17.0799
1.8597,25.3202
1.8602,32.0344
1.8607,36.6123
1.8612,38.4435
1.8617,36.0020
1.8622,30.2033
1.8627,24.4046
1.8632,19.8267
1.8637,14.9435
1.8642,10.0604
1.8647,7.6189
1.8652,7.6189
1.8657,7.3137
1.8662,4.2617
1.8667,0.2942
1.8672,-3.0629
1.8677,-5.8097
1.8682,-8.5564
1.8687,-9.1668
1.8692,-7.6408
1.8697,-6.7253
1.8702,-9.7772
1.8707,-13.7447
1.8712,-14.9655
1.8717,-12.8291
1.8722,-11.3032
1.8727,-12.8291
1.8732,-14.6603
1.8737,-15.5759
1.8742,-16.4915
1.8747,-17.1019
1.8752,-16.1863
1.8757,-14.0499
1.8762,-12.5240
1.8767,-12.5240
1.8772,-12.8291
1.8777,-12.8291
1.8782,-13.4395
1.8787,-15.2707
1.8792,-15.8811
1.8797,-14.9655
1.8802,-14.6603
1.8807,-14.9655
1.8812,-14.3551
1.8817,-11.3032
1.8822,-8.2512
1.8827,-6.1149
1.8832,-3.6733
1.8837,-1.8421
1.8842,-2.1473
1.8847,-4.5889
1.8852,-5.5045
1.8857,-3.9785
1.8862,-3.3681
1.8867,-5.8097
1.8872,-9.1668
1.8877,-10.3876
1.8882,-9.4720
1.8887,-9.4720
1.8892,-10.0824
1.8897,-10.3876
1.8902,-10.3876
1.8907,-10.9980
1.8912,-13.7447
1.8917,-18.3226
1.8922,-22.2902
1.8927,-23.2058
1.8932,-19.2382
1.8937,-12.8291
1.8942,-8.2512
1.8947,-6.4201
1.8952,-4.8941
1.8957,-1.8421
1.8962,0.9046
1.8967,3.0410
1.8972,5.4825
1.8977,7.6189
1.8982,6.7033
1.8987,0.9046
1.8992,-6.4201
1.8997,-11.9136
1.9002,-13.1343
1.9007,-10.0824
1.9012,-4.2837
1.9017,-0.0110
1.9022,-0.6214
1.9027,-5.5045
1.9032,-10.0824
1.9037,-10.9980
1.9042,-8.5564
1.9047,-6.1149
1.9052,-5.5045
1.9057,-5.5045
1.9062,-5.1993
1.9067,-4.2837
1.9072,-3.3681
1.9077,-2.1473
1.9082,-2.4525
1.9087,-3.9785
1.9092,-6.4201
1.9097,-7.3356
1.9102,-5.5045
1.9107,-1.5370
1.9112,1.8202
1.9117,2.7358
1.9122,2.4306
1.9127,2.1254
1.9132,1.5150
1.9137,-0.6214
1.9142,-3.9785
1.9147,-5.1993
1.9152,-1.8421
1.9157,2.4306
1.9162,5.1773
1.9167,4.2617
1.9172,3.0410
1.9177,4.2617
1.9182,7.6189
1.9187,10.6708
1.9192,10.6708
1.9197,8.2293
1.9202,5.7877
1.9207,5.1773
1.9212,4.2617
1.9217,1.5150
1.9222,-1.5370
1.9227,-3.6733
1.9232,-3.6733
1.9237,-4.5889
1.9242,-7.0305
1.9247,-8.2512
1.9252,-5.5045
1.9257,-0.3162
1.9262,3.6514
1.9267,6.7033
1.9272,9.1449
1.9277,10.0604
1.9282,8.2293
1.9287,4.2617
1.9292,2.1254
1.9297,3.0410
1.9302,5.7877
1.9307,8.5345
1.9312,8.8397
1.9317,5.1773
1.9322,-1.5370
1.9327,-7.3356
1.9332,-6.1149
1.9337,0.9046
1.9342,7.9241
1.9347,9.1449
1.9352,6.7033
1.9357,5.1773
1.9362,3.9565
1.9367,1.2098
1.9372,-1.5370
1.9377,-2.1473
1.9382,-0.3162
1.9387,0.5994
1.9392,-0.9266
1.9397,-3.6733
1.9402,-4.2837
1.9407,-1.8421
1.9412,0.2942
1.9417,-0.0110
1.9422,-1.8421
1.9427,-3.3681
1.9432,-1.8421
1.9437,2.4306
1.9442,7.6189
1.9447,11.5864
1.9452,13.1124
1.9457,12.5020
1.9462,10.0604
1.9467,6.7033
1.9472,5.1773
1.9477,5.7877
1.9482,6.7033
1.9487,6.0929
1.9492,4.2617
1.9497,3.0410
1.9502,2.4306
1.9507,0.5994
1.9512,-3.0629
1.9517,-7.0305
1.9522,-7.0305
1.9527,-3.3681
1.9532,-0.0110
1.9537,-0.3162
1.9542,-4.8941
1.9547,-8.5564
1.9552,-9.1668
1.9557,-7.3356
1.9562,-5.1993
1.9567,-2.7577
1.9572,-0.0110
1.9577,1.2098
1.9582,0.5994
1.9587,0.5994
1.9592,3.3462
1.9597,6.0929
1.9602,5.7877
1.9607,2.7358
1.9612,1.5150
1.9617,3.3462
1.9622,4.8721
1.9627,2.7358
1.9632,-0.0110
1.9637,0.2942
1.9642,2.7358
1.9647,3.0410
1.9652,0.9046
1.9657,-0.0110
1.9662,1.5150
1.9667,3.9565
1.9672,5.7877
1.9677,6.7033
1.9682,6.0929
1.9686,4.5669
1.9691,2.4306
1.9696,2.1254
1.9701,3.3462
1.9706,3.9565
1.9711,3.0410
1.9716,2.7358
1.9721,4.2617
1.9726,6.0929
1.9731,6.7033
1.9736,5.4825
1.9741,3.3462
1.9746,-0.0110
1.9751,-3.0629
1.9756,-3.0629
1.9761,0.2942
1.9766,2.4306
1.9771,-0.0110
1.9776,-3.0629
1.9781,-1.2318
1.9786,4.5669
1.9791,8.2293
1.9796,5.4825
1.9801,-0.6214
1.9806,-6.1149
1.9811,-9.1668
1.9816,-8.5564
1.9821,-3.6733
1.9826,3.9565
1.9831,9.7552
1.9836,10.9760
1.9841,10.0604
1.9846,8.8397
1.9851,6.3981
1.9856,3.6514
1.9861,3.0410
1.9866,6.0929
1.9871,8.2293
1.9876,6.3981
1.9881,3.9565
1.9886,4.5669
1.9891,7.0085
1.9896,7.0085
1.9901,3.9565
1.9906,1.5150
1.9911,2.1254
1.9916,4.5669
1.9921,7.6189
1.9926,9.4500
1.9931,7.3137
1.9936,0.5994
1.9941,-6.4201
1.9946,-7.6408
1.9951,-2.1473
1.9956,3.6514
1.9961,4.8721
1.9966,1.2098
1.9971,-2.1473
1.9976,-2.4525
1.9981,-0.6214
1.9986,0.2942
1.9991,0.5994
1.9996,1.2098
2.0001,2.1254
2.0006,1.8202
2.0011,-0.0110
2.0016,-3.0629
2.0021,-5.5045
2.0026,-6.7253
2.0031,-6.7253
2.0036,-4.5889
2.0041,-0.6214
2.0046,1.8202
2.0051,-0.0110
2.0056,-6.4201
2.0061,-10.6928
2.0066,-8.8616
2.0071,-3.3681
2.0076,-0.9266
2.0081,-2.1473
2.0086,-3.0629
2.0091,-1.2318
2.0096,1.2098
2.0101,0.9046
2.0106,-1.8421
2.0111,-4.5889
2.0116,-4.2837
2.0121,-2.1473
2.0126,-0.0110
2.0131,1.2098
2.0136,0.9046
2.0141,-0.6214
2.0146,-2.7577
2.0151,-3.6733
2.0156,-2.7577
2.0161,-1.5370
2.0166,-0.6214
2.0171,-0.0110
2.0176,0.2942
2.0181,1.2098
2.0186,1.8202
2.0191,2.4306
2.0196,1.8202
2.0201,-0.3162
2.0206,-3.3681
2.0211,-5.5045
2.0216,-5.5045
2.0221,-4.5889
2.0226,-4.8941
2.0231,-6.4201
2.0236,-7.3356
2.0241,-6.1149
2.0246,-3.9785
2.0251,-2.4525
2.0256,-1.8421
2.0261,-2.4525
2.0266,-3.6733
2.0271,-3.9785
2.0276,-2.1473
2.0281,0.9046
2.0286,2.7358
2.0291,1.5150
2.0296,-0.9266
2.0301,-1.2318
2.0306,0.2942
2.0311,1.5150
2.0316,-0.0110
2.0321,-2.7577
2.0326,-4.5889
2.0331,-4.2837
2.0336,-3.0629
2.0341,-1.5370
2.0346,-0.3162
2.0351,-0.0110
2.0356,-1.8421
2.0361,-5.1993
2.0366,-7.3356
2.0371,-6.4201
2.0376,-2.1473
2.0381,1.8202
2.0386,3.6514
2.0391,3.6514
2.0396,3.6514
2.0401,4.5669
2.0406,3.9565
2.0411,1.2098
2.0416,-3.0629
2.0421,-7.0305
2.0426,-9.7772
2.0431,-13.1343
2.0436,-16.4915
2.0441,-18.0175
2.0446,-14.0499
2.0451,-5.5045
2.0456,1.5150
2.0461,3.3462
2.0466,2.4306
2.0471,3.9565
2.0476,7.0085
2.0481,5.1773
2.0486,-2.7577
2.0491,-9.1668
2.0496,-6.4201
2.0501,1.8202
2.0506,8.2293
2.0511,10.6708
2.0516,11.8916
2.0521,12.1968
2.0526,9.1449
2.0531,4.2617
2.0536,3.0410
2.0541,6.3981
2.0546,9.4500
2.0551,9.1449
2.0556,8.5345
2.0561,8.5345
2.0566,7.0085
2.0571,3.0410
2.0576,-0.0110
2.0581,0.9046
2.0586,3.6514
2.0591,3.3462
2.0596,-0.0110
2.0601,-3.3681
2.0606,-4.8941
2.0611,-4.8941
2.0616,-4.5889
2.0621,-3.0629
2.0626,-1.2318
2.0631,-0.3162
2.0636,-0.3162
2.0641,-1.8421
2.0646,-3.6733
2.0651,-4.8941
2.0656,-3.0629
2.0661,0.5994
2.0666,3.0410
2.0671,2.7358
2.0676,2.1254
2.0681,3.9565
2.0686,6.7033
2.0691,7.0085
2.0696,5.1773
2.0701,3.9565
2.0706,4.8721
2.0711,4.8721
2.0716,1.5150
2.0721,-3.0629
2.0726,-7.3356
2.0731,-8.5564
2.0736,-7.9460
2.0741,-7.6408
2.0746,-8.8616
2.0751,-9.1668
2.0756,-7.0305
2.0761,-2.1473
2.0766,1.8202
2.0771,2.7358
2.0776,1.2098
2.0781,-0.0110
2.0786,-0.3162
2.0791,-0.3162
2.0796,-0.0110
2.0801,1.5150
2.0806,1.8202
2.0811,-0.0110
2.0816,-3.6733
2.0821,-4.5889
2.0826,-2.7577
2.0831,-0.9266
2.0836,-0.3162
2.0841,0.2942
2.0846,1.8202
2.0851,2.4306
2.0856,0.9046
2.0861,-0.3162
2.0866,-0.3162
2.0871,-0.3162
2.0876,-2.4525
2.0881,-4.8941
2.0886,-4.5889
2.0891,-2.1473
2.0896,-1.5370
2.0901,-2.7577
2.0906,-3.6733
2.0911,-2.4525
2.0916,-0.9266
2.0921,-0.9266
2.0926,-0.9266
2.0931,-0.6214
2.0936,-0.6214
2.0941,-1.2318
2.0946,-1.5370
2.0951,-0.6214
2.0956,-0.0110
2.0961,-0.0110
2.0966,-0.0110
2.0971,0.5994
2.0976,2.7358
2.0981,4.5669
2.0986,4.8721
2.0991,3.9565
2.0996,1.8202
2.1001,0.9046
2.1006,2.4306
2.1011,4.2617
2.1016,2.7358
2.1021,-2.4525
2.1026,-7.3356
2.1031,-7.9460
2.1036,-4.5889
2.1041,-1.2318
2.1046,1.2098
2.1051,3.9565
2.1056,5.4825
2.1061,5.1773
2.1066,3.9565
2.1071,2.7358
2.1076,2.1254
2.1081,1.5150
2.1086,1.5150
2.1091,3.0410
2.1096,3.9565
2.1101,3.6514
2.1106,3.0410
2.1111,3.3462
2.1116,3.9565
2.1121,3.0410
2.1126,2.1254
2.1131,1.5150
2.1136,0.9046
2.1141,-0.6214
2.1146,-1.8421
2.1151,-0.0110
2.1156,2.7358
2.1161,3.9565
2.1166,2.1254
2.1171,-0.0110
2.1176,-0.0110
2.1181,0.5994
2.1186,2.4306
2.1191,4.2617
2.1196,4.8721
2.1201,3.6514
2.1206,1.2098
2.1211,-0.6214
2.1216,-1.5370
2.1221,-2.1473
2.1226,-3.0629
2.1231,-3.9785
2.1236,-3.0629
2.1241,-0.3162
2.1246,2.1254
2.1251,3.3462
2.1256,2.7358
2.1261,1.2098
2.1266,0.5994
2.1271,1.8202
2.1276,3.3462
2.1281,3.0410
2.1286,0.5994
2.1291,-1.8421
2.1296,-2.4525
2.1301,-0.6214
2.1306,0.5994
2.1311,0.5994
2.1316,-0.9266
2.1321,-2.4525
2.1326,-2.4525
2.1331,-0.9266
2.1336,0.2942
2.1341,1.5150
2.1346,1.8202
2.1351,1.5150
2.1356,1.5150
2.1361,2.4306
2.1366,3.3462
2.1371,1.8202
2.1376,-0.0110
2.1381,-0.3162
2.1386,2.4306
2.1391,3.9565
2.1396,0.9046
2.1401,-4.8941
2.1406,-7.0305
2.1411,-3.9785
2.1416,-0.0110
2.1421,0.5994
2.1426,-0.0110
2.1431,-0.0110
2.1436,1.2098
2.1441,2.1254
2.1446,2.1254
2.1451,2.1254
2.1456,2.7358
2.1461,3.0410
2.1466,2.1254
2.1471,-0.0110
2.1476,-2.4525
2.1481,-2.7577
2.1486,-0.6214
2.1491,1.8202
2.1496,2.4306
2.1501,1.2098
2.1506,-0.0110
2.1511,-0.6214
2.1516,-1.5370
2.1521,-3.3681
2.1526,-4.2837
2.1531,-4.2837
2.1536,-3.9785
2.1541,-3.6733
2.1546,-3.6733
2.1551,-3.9785
2.1556,-5.5045
2.1561,-7.0305
2.1566,-6.4201
2.1571,-4.5889
2.1576,-3.9785
2.1581,-4.8941
2.1586,-5.5045
2.1591,-3.9785
2.1596,-2.4525
2.1601,-2.1473
2.1606,-2.7577
2.1611,-2.7577
2.1616,-3.9785
2.1621,-6.4201
2.1626,-8.2512
2.1631,-7.3356
2.1636,-4.2837
2.1641,-1.8421
2.1646,-0.0110
2.1651,2.7358
2.1656,4.8721
2.1661,5.1773
2.1666,4.2617
2.1671,3.0410
2.1676,2.1254
2.1681,0.5994
2.1686,-0.3162
2.1691,-0.0110
2.1696,0.5994
2.1701,-0.9266
2.1706,-3.6733
2.1711,-3.9785
2.1716,-1.5370
2.1721,0.9046
2.1726,2.4306
2.1731,3.3462
2.1736,4.5669
2.1741,3.9565
2.1746,2.1254
2.1751,0.2942
2.1756,-0.0110
2.1761,-0.0110
2.1766,-0.0110
2.1771,0.2942
2.1776,1.8202
2.1781,3.0410
2.1786,3.0410
2.1791,2.4306
2.1796,1.8202
2.1801,1.5150
2.1806,0.9046
2.1811,-0.0110
2.1816,-0.3162
2.1821,-0.0110
2.1826,0.5994
2.1831,1.5150
2.1836,1.2098
2.1841,0.2942
2.1846,-0.0110
2.1851,-0.6214
2.1856,-2.1473
2.1861,-3.9785
2.1866,-3.6733
2.1871,-1.5370
2.1876,-1.2318
2.1881,-3.6733
2.1886,-5.1993
2.1891,-3.3681
2.1896,-0.0110
2.1901,0.9046
2.1906,-0.9266
2.1911,-2.7577
2.1916,-2.1473
2.1921,-1.2318
2.1926,-2.4525
2.1931,-3.6733
2.1936,-2.7577
2.1941,-0.3162
2.1946,1.8202
2.1951,3.0410
2.1956,3.3462
2.1961,2.1254
2.1966,-0.0110
2.1971,-1.5370
2.1976,-0.3162
2.1981,1.8202
2.1986,2.7358
2.1991,2.7358
2.1996,3.3462
2.2001,3.6514
2.2006,3.3462
2.2011,2.4306
2.2016,2.1254
2.2021,3.0410
2.2026,3.6514
2.2031,3.3462
2.2036,2.1254
2.2041,-0.0110
2.2046,-0.9266
2.2051,-0.0110
2.2056,1.5150
2.2061,2.4306
2.2066,1.5150
2.2071,0.2942
2.2076,-0.0110
2.2081,0.2942
2.2086,-0.0110
2.2091,-0.6214
2.2096,-0.0110
2.2101,1.8202
2.2106,3.3462
2.2111,3.3462
2.2116,2.1254
2.2121,0.5994
2.2126,-0.0110
2.2131,-0.9266
2.2136,-2.7577
2.2141,-5.1993
2.2146,-6.4201
2.2151,-5.5045
2.2156,-4.2837
2.2161,-4.5889
2.2166,-5.1993
2.2171,-3.6733
2.2176,-0.0110
2.2181,3.3462
2.2186,3.6514
2.2191,1.8202
2.2196,-0.6214
2.2201,-3.3681
2.2206,-4.5889
2.2211,-2.4525
2.2216,0.9046
2.2221,2.4306
2.2226,-0.0110
2.2231,-3.0629
2.2236,-3.0629
2.2241,-0.6214
2.2246,-0.0110
2.2251,-0.0110
2.2256,0.2942
2.2261,1.2098
2.2266,0.2942
2.2271,-1.2318
2.2276,-0.9266
2.2281,0.9046
2.2286,1.8202
2.2291,0.5994
2.2296,0.5994
2.2301,2.7358
2.2306,3.3462
2.2311,0.9046
2.2316,-0.6214
2.2321,3.0410
2.2326,9.1449
2.2331,11.2812
2.2336,7.9241
2.2341,4.2617
2.2346,3.6514
2.2351,3.9565
2.2356,3.3462
2.2361,4.2617
2.2366,7.6189
2.2371,10.0604
2.2376,8.5345
2.2381,4.8721
2.2386,3.9565
2.2391,5.1773
2.2396,5.4825
2.2401,3.0410
2.2406,0.2942
2.2411,-0.0110
2.2416,0.9046
2.2421,1.2098
2.2426,-0.0110
2.2431,-0.3162
2.2436,-0.0110
2.2441,1.2098
2.2446,0.9046
2.2451,-0.3162
2.2456,-1.2318
2.2461,-1.2318
2.2466,-0.9266
2.2471,-1.2318
2.2476,-0.3162
2.2481,0.9046
2.2486,2.1254
2.2491,0.9046
2.2496,-1.2318
2.2501,-1.8421
2.2506,-0.0110
2.2511,1.8202
2.2516,1.5150
2.2521,-0.6214
2.2526,-3.9785
2.2531,-6.7253
2.2536,-8.2512
2.2541,-8.2512
2.2546,-7.3356
2.2551,-7.0305
2.2556,-6.7253
2.2561,-4.5889
2.2566,-2.1473
2.2571,-1.5370
2.2576,-3.0629
2.2581,-3.6733
2.2586,-2.7577
2.2591,-2.1473
2.2596,-2.4525
2.2601,-2.1473
2.2606,-0.3162
2.2611,-0.6214
2.2616,-3.9785
2.2621,-6.4201
2.2626,-3.6733
2.2631,1.2098
2.2636,3.6514
2.2641,1.8202
2.2646,0.2942
2.2651,0.9046
2.2656,2.1254
2.2661,1.5150
2.2666,0.2942
2.2671,-0.0110
2.2676,-0.0110
2.2681,-0.6214
2.2686,-1.8421
2.2691,-2.4525
2.2696,-3.0629
2.2701,-3.9785
2.2706,-4.8941
2.2711,-4.8941
2.2716,-3.9785
2.2721,-2.1473
2.2726,-1.2318
2.2731,-1.2318
2.2736,-0.9266
2.2741,-0.0110
2.2746,0.5994
2.2751,0.5994
2.2756,-0.0110
2.2761,-0.6214
2.2766,-0.3162
2.2771,-0.3162
2.2776,-0.6214
2.2781,-0.9266
2.2786,-0.0110
2.2791,0.9046
2.2796,1.8202
2.2801,1.8202
2.2806,1.2098
2.2811,0.2942
2.2816,-0.3162
2.2821,-0.6214
2.2826,-1.2318
2.2831,-1.2318
2.2836,-0.6214
2.2841,-0.3162
2.2846,-0.0110
2.2851,-0.3162
2.2856,-0.0110
2.2861,-0.0110
2.2866,0.2942
2.2871,0.9046
2.2876,1.5150
2.2881,2.1254
2.2886,2.1254
2.2891,1.2098
2.2896,1.2098
2.2901,1.8202
2.2906,2.1254
2.2911,1.5150
2.2916,0.5994
2.2921,0.9046
2.2926,1.2098
2.2931,0.2942
2.2936,-0.6214
2.2941,-0.0110
2.2946,2.1254
2.2951,2.7358
2.2956,0.2942
2.2961,-2.1473
2.2966,-2.7577
2.2971,-1.5370
2.2976,-1.2318
2.2981,-2.4525
2.2986,-3.6733
2.2991,-2.7577
2.2996,-0.0110
2.3001,2.7358
2.3006,4.8721
2.3011,6.0929
2.3016,6.0929
2.3021,4.2617
2.3026,1.8202
2.3031,0.5994
2.3036,0.5994
2.3041,-0.0110
2.3046,-1.8421
2.3051,-4.8941
2.3056,-7.0305
2.3061,-8.5564
2.3066,-9.1668
2.3071,-7.6408
2.3076,-3.9785
2.3081,-0.9266
2.3086,-1.2318
2.3091,-3.3681
2.3096,-3.0629
2.3101,-0.3162
2.3106,2.1254
2.3111,3.0410
2.3116,4.5669
2.3121,7.0085
2.3126,7.3137
2.3131,3.0410
2.3136,-2.1473
2.3141,-4.5889
2.3146,-3.3681
2.3151,-1.8421
2.3156,-0.0110
2.3161,2.4306
2.3166,3.9565
2.3171,3.0410
2.3176,0.2942
2.3181,-1.8421
2.3186,-3.3681
2.3191,-3.6733
2.3196,-1.8421
2.3201,0.5994
2.3206,2.7358
2.3211,3.6514
2.3216,6.0929
2.3221,12.1968
2.3226,19.5215
2.3231,24.7098
2.3236,26.8461
2.3241,27.1513
2.3246,27.7617
2.3251,29.2877
2.3256,32.9500
2.3261,36.6123
2.3266,33.2552
2.3271,19.5215
2.3276,1.5150
2.3281,-7.9460
2.3286,-6.7253
2.3291,-3.9785
2.3296,-9.1668
2.3301,-19.8486
2.3306,-26.8681
2.3311,-28.3941
2.3316,-30.2252
2.3321,-36.3291
2.3326,-44.5694
2.3331,-52.1992
2.3336,-57.6927
2.3341,-59.8291
2.3346,-57.9979
2.3351,-55.8616
2.3356,-58.6083
2.3361,-61.9654
2.3366,-54.3356
2.3371,-30.5304
2.3376,-1.8421
2.3381,17.0799
2.3386,25.6253
2.3391,32.9500
2.3396,43.6318
2.3401,51.2617
2.3406,50.9565
2.3411,44.5474
2.3416,37.2227
2.3421,32.6448
2.3426,30.2033
2.3431,27.1513
2.3436,21.3526
2.3441,14.0280
2.3446,9.1449
2.3451,9.1449
2.3456,11.2812
2.3461,10.0604
2.3466,6.7033
2.3471,4.2617
2.3476,3.0410
2.3481,0.9046
2.3486,-0.6214
2.3491,0.9046
2.3496,5.1773
2.3501,8.5345
2.3506,9.7552
2.3511,10.3656
2.3516,9.1449
2.3521,4.2617
2.3526,-3.0629
2.3531,-8.8616
2.3536,-9.7772
2.3541,-7.3356
2.3546,-3.0629
2.3551,3.0410
2.3556,9.1449
2.3561,10.0604
2.3566,5.4825
2.3571,1.2098
2.3576,0.9046
2.3581,3.0410
2.3586,2.7358
2.3591,0.2942
2.3596,-0.3162
2.3601,0.2942
2.3606,1.2098
2.3611,0.5994
2.3616,-0.0110
2.3621,-0.0110
2.3626,0.2942
2.3631,-0.0110
2.3636,-0.9266
2.3641,-0.9266
2.3646,-0.3162
2.3651,0.2942
2.3656,0.5994
2.3661,0.2942
2.3666,-0.3162
2.3671,-1.8421
2.3676,-2.1473
2.3681,-0.0110
2.3686,3.3462
2.3691,5.4825
2.3696,4.8721
2.3701,3.0410
2.3706,1.8202
2.3711,-0.0110
2.3716,-3.3681
2.3721,-6.1149
2.3726,-6.1149
2.3731,-3.6733
2.3736,-2.7577
2.3741,-3.3681
2.3746,-3.9785
2.3751,-3.6733
2.3756,-4.8941
2.3761,-7.3356
2.3766,-7.9460
2.3771,-3.9785
2.3776,2.4306
2.3781,7.0085
2.3786,5.7877
2.3791,0.9046
2.3796,-3.3681
2.3801,-5.1993
2.3806,-4.2837
2.3811,-2.7577
2.3816,-1.2318
2.3821,-0.0110
2.3826,-0.0110
2.3831,-0.9266
2.3836,-3.0629
2.3841,-4.5889
2.3846,-4.8941
2.3851,-4.2837
2.3856,-2.7577
2.3861,-0.6214
2.3866,0.9046
2.3871,1.2098
2.3876,-0.0110
2.3881,-1.8421
2.3886,-3.9785
2.3891,-5.8097
2.3896,-4.8941
2.3901,-1.2318
2.3906,1.8202
2.3911,0.9046
2.3916,-1.8421
2.3921,-3.0629
2.3926,-0.9266
2.3931,0.2942
2.3936,-0.0110
2.3941,-0.0110
2.3946,1.5150
2.3951,0.2942
2.3956,-5.8097
2.3961,-12.2188
2.3966,-13.7447
2.3971,-11.9136
2.3976,-10.6928
2.3981,-9.7772
2.3986,-7.0305
2.3991,-3.6733
2.3996,-3.6733
2.4001,-5.8097
2.4006,-6.1149
2.4011,-3.0629
2.4016,-0.0110
2.4021,-0.0110
2.4026,-1.5370
2.4031,-2.7577
2.4036,-3.9785
2.4041,-4.5889
2.4046,-4.2837
2.4051,-2.7577
2.4056,-2.1473
2.4061,-3.0629
2.4066,-3.0629
2.4071,-1.2318
2.4076,1.5150
2.4081,3.6514
2.4086,3.9565
2.4091,2.4306
2.4096,-0.0110
2.4101,-2.7577
2.4106,-4.5889
2.4111,-5.5045
2.4116,-5.8097
2.4121,-5.5045
2.4126,-4.5889
2.4131,-3.0629
2.4136,-1.8421
2.4141,0.2942
2.4146,3.3462
2.4151,5.4825
2.4156,4.5669
2.4161,1.5150
2.4166,0.2942
2.4171,0.5994
2.4176,-0.3162
2.4181,-3.6733
2.4186,-4.8941
2.4191,-1.2318
2.4196,3.0410
2.4201,4.5669
2.4206,3.0410
2.4211,1.5150
2.4216,0.2942
2.4221,-0.6214
2.4226,-1.2318
2.4231,-0.0110
2.4236,0.9046
2.4241,-0.3162
2.4246,-2.7577
2.4251,-3.0629
2.4256,-0.6214
2.4261,0.9046
2.4266,2.1254
2.4271,3.6514
2.4276,4.5669
2.4281,2.1254
2.4286,-1.5370
2.4291,-2.4525
2.4296,-0.0110
2.4301,1.5150
2.4306,-0.0110
2.4311,-2.4525
2.4316,-3.0629
2.4321,-1.8421
2.4326,-0.9266
2.4331,0.5994
2.4336,2.4306
2.4341,2.4306
2.4346,0.2942
2.4351,-1.5370
2.4356,-0.6214
2.4361,0.9046
2.4366,2.1254
2.4371,3.3462
2.4376,4.5669
2.4381,4.5669
2.4386,3.0410
2.4391,3.6514
2.4396,7.6189
2.4401,11.2812
2.4406,9.7552
2.4411,4.2617
2.4416,0.9046
2.4421,0.9046
2.4426,0.9046
2.4431,-1.5370
2.4436,-5.5045
2.4441,-6.7253
2.4446,-4.8941
2.4451,-3.9785
2.4456,-6.1149
2.4461,-8.8616
2.4466,-7.9460
2.4471,-2.7577
2.4476,2.1254
2.4481,2.7358
2.4486,0.2942
2.4491,-0.3162
2.4496,0.2942
2.4501,0.5994
2.4506,-0.0110
2.4511,0.9046
2.4516,5.4825
2.4521,9.7552
2.4526,10.6708
2.4531,7.6189
2.4536,3.9565
2.4541,0.9046
2.4546,-0.0110
2.4551,1.8202
2.4556,4.5669
2.4561,4.8721
2.4566,3.6514
2.4571,3.9565
2.4576,7.0085
2.4581,10.0604
2.4586,11.5864
2.4591,13.4176
2.4596,15.5539
2.4601,15.5539
2.4606,11.2812
2.4611,4.5669
2.4616,-0.3162
2.4621,-3.3681
2.4626,-3.0629
2.4631,0.5994
2.4636,5.4825
2.4641,7.3137
2.4646,4.8721
2.4651,1.8202
2.4656,0.9046
2.4661,2.1254
2.4666,1.8202
2.4671,0.5994
2.4676,1.2098
2.4681,3.9565
2.4686,7.3137
2.4691,9.1449
2.4696,9.4500
2.4701,8.8397
2.4706,6.7033
2.4711,1.8202
2.4716,-5.5045
2.4721,-11.6084
2.4726,-12.8291
2.4731,-10.6928
2.4736,-8.5564
2.4741,-8.5564
2.4746,-8.2512
2.4751,-5.8097
2.4756,-3.9785
2.4761,-4.8941
2.4766,-7.6408
2.4771,-8.8616
2.4776,-7.6408
2.4781,-4.8941
2.4786,-1.2318
2.4791,2.1254
2.4796,5.1773
2.4801,5.7877
2.4806,4.2617
2.4811,1.8202
2.4816,0.2942
2.4821,0.9046
2.4826,3.9565
2.4831,6.7033
2.4836,5.1773
2.4841,0.2942
2.4846,-3.3681
2.4851,-3.0629
2.4856,1.2098
2.4861,5.1773
2.4866,6.0929
2.4871,3.6514
2.4876,0.5994
2.4881,-0.0110
2.4886,1.8202
2.4891,5.1773
2.4896,6.7033
2.4901,5.7877
2.4906,4.2617
2.4911,3.9565
2.4916,4.2617
2.4921,4.2617
2.4926,2.4306
2.4931,-0.0110
2.4936,-3.0629
2.4941,-3.9785
2.4946,-1.5370
2.4951,0.5994
2.4956,0.5994
2.4961,-0.9266
2.4966,-0.6214
2.4971,1.5150
2.4976,3.0410
2.4981,1.8202
2.4986,0.2942
2.4991,0.2942
2.4996,0.5994
2.5001,-0.0110
2.5006,-0.9266
2.5011,-0.6214
2.5016,-0.0110
2.5021,0.2942
2.5026,-0.3162
2.5031,-1.2318
2.5036,-2.1473
2.5041,-2.7577
2.5046,-1.8421
2.5051,0.2942
2.5056,2.1254
2.5061,2.7358
2.5066,1.8202
2.5071,0.9046
2.5076,-0.3162
2.5081,-0.9266
2.5086,-0.0110
2.5091,0.5994
2.5096,-0.9266
2.5101,-4.5889
2.5106,-6.1149
2.5111,-3.3681
2.5116,-0.0110
2.5121,0.5994
2.5126,-0.3162
2.5131,0.2942
2.5136,3.0410
2.5141,3.3462
2.5146,0.2942
2.5151,-3.0629
2.5156,-4.5889
2.5161,-4.5889
2.5166,-4.8941
2.5171,-5.8097
2.5176,-6.1149
2.5181,-5.8097
2.5186,-4.2837
2.5191,-2.1473
2.5196,-0.6214
2.5201,-0.9266
2.5206,-2.7577
2.5211,-4.2837
2.5216,-4.5889
2.5221,-3.9785
2.5226,-3.9785
2.5231,-4.8941
2.5236,-5.1993
2.5241,-3.9785
2.5246,-2.1473
2.5251,-0.9266
2.5256,-0.9266
2.5261,-0.6214
2.5266,-0.0110
2.5271,-0.6214
2.5276,-2.4525
2.5281,-3.3681
2.5286,-1.5370
2.5291,0.2942
2.5296,0.9046
2.5301,-0.6214
2.5306,-2.1473
2.5310,-2.1473
2.5315,-1.5370
2.5320,-0.0110
2.5325,0.9046
2.5330,-0.0110
2.5335,-2.1473
2.5340,-4.8941
2.5345,-5.8097
2.5350,-5.5045
2.5355,-4.8941
2.5360,-3.6733
2.5365,-0.6214
2.5370,1.5150
2.5375,1.5150
2.5380,-0.0110
2.5385,-0.3162
2.5390,-0.3162
2.5395,-1.2318
2.5400,-1.8421
2.5405,-0.3162
2.5410,1.8202
2.5415,1.8202
2.5420,-0.0110
2.5425,1.2098
2.5430,5.1773
2.5435,7.0085
2.5440,3.9565
2.5445,-0.0110
2.5450,-0.6214
2.5455,1.2098
2.5460,3.0410
2.5465,3.9565
2.5470,4.8721
2.5475,3.9565
2.5480,0.2942
2.5485,-3.6733
2.5490,-4.2837
2.5495,-2.1473
2.5500,-0.3162
2.5505,-0.6214
2.5510,-0.6214
2.5515,-0.0110
2.5520,-0.6214
2.5525,-2.4525
2.5530,-3.3681
2.5535,-2.7577
2.5540,-2.4525
2.5545,-3.6733
2.5550,-4.5889
2.5555,-3.6733
2.5560,-2.1473
2.5565,-1.5370
2.5570,-1.8421
2.5575,-0.9266
2.5580,0.9046
2.5585,2.4306
2.5590,3.0410
2.5595,2.7358
2.5600,2.1254
2.5605,1.2098
2.5610,0.2942
2.5615,-0.0110
2.5620,-0.3162
2.5625,-0.3162
2.5630,0.2942
2.5635,0.2942
2.5640,-0.9266
2.5645,-3.6733
2.5650,-5.1993
2.5655,-4.2837
2.5660,-2.1473
2.5665,-0.9266
2.5670,-1.5370
2.5675,-1.2318
2.5680,-0.0110
2.5685,1.8202
2.5690,2.7358
2.5695,1.8202
2.5700,0.9046
2.5705,-0.0110
2.5710,-0.6214
2.5715,-2.7577
2.5720,-5.5045
2.5725,-7.0305
2.5730,-6.4201
2.5735,-4.2837
2.5740,-2.1473
2.5745,-0.6214
2.5750,0.5994
2.5755,2.1254
2.5760,2.4306
2.5765,1.2098
2.5770,0.2942
2.5775,0.9046
2.5780,2.4306
2.5785,3.0410
2.5790,3.3462
2.5795,3.6514
2.5800,4.5669
2.5805,5.7877
2.5810,7.6189
2.5815,9.4500
2.5820,10.6708
2.5825,10.9760
2.5830,10.0604
2.5835,8.5345
2.5840,5.4825
2.5845,0.5994
2.5850,-4.2837
2.5855,-7.0305
2.5860,-6.4201
2.5865,-3.9785
2.5870,-1.8421
2.5875,-0.6214
2.5880,-0.3162
2.5885,-0.6214
2.5890,-0.6214
2.5895,-0.0110
2.5900,0.9046
2.5905,0.9046
2.5910,-0.0110
2.5915,-0.0110
2.5920,2.4306
2.5925,4.5669
2.5930,3.9565
2.5935,1.8202
2.5940,0.2942
2.5945,0.5994
2.5950,0.5994
2.5955,0.5994
2.5960,1.5150
2.5965,2.7358
2.5970,1.8202
2.5975,-0.9266
2.5980,-2.7577
2.5985,-1.8421
2.5990,-0.0110
2.5995,0.9046
2.6000,0.9046
2.6005,0.5994
2.6010,0.9046
2.6015,0.2942
2.6020,-0.3162
2.6025,-0.6214
2.6030,-0.3162
2.6035,-0.9266
2.6040,-2.7577
2.6045,-4.5889
2.6050,-5.5045
2.6055,-6.4201
2.6060,-7.9460
2.6065,-9.1668
2.6070,-9.7772
2.6075,-8.2512
2.6080,-5.8097
2.6085,-3.6733
2.6090,-2.1473
2.6095,-0.6214
2.6100,1.2098
2.6105,3.6514
2.6110,4.5669
2.6115,3.3462
2.6120,0.5994
2.6125,-2.1473
2.6130,-4.8941
2.6135,-5.8097
2.6140,-5.1993
2.6145,-3.3681
2.6150,-0.9266
2.6155,2.1254
2.6160,5.1773
2.6165,5.7877
2.6170,3.6514
2.6175,0.5994
2.6180,0.5994
2.6185,3.0410
2.6190,4.8721
2.6195,3.9565
2.6200,1.2098
2.6205,-0.3162
2.6210,-0.0110
2.6215,0.2942
2.6220,-0.0110
2.6225,-1.8421
2.6230,-2.1473
2.6235,-0.9266
2.6240,-0.0110
2.6245,-0.9266
2.6250,-3.6733
2.6255,-4.5889
2.6260,-2.4525
2.6265,-0.3162
2.6270,-0.9266
2.6275,-2.1473
2.6280,-1.8421
2.6285,-0.3162
2.6290,-0.0110
2.6295,-1.2318
2.6300,-3.0629
2.6305,-4.2837
2.6310,-3.9785
2.6315,-2.4525
2.6320,0.2942
2.6325,2.7358
2.6330,3.0410
2.6335,1.5150
2.6340,0.2942
2.6345,0.2942
2.6350,1.2098
2.6355,1.8202
2.6360,3.0410
2.6365,3.6514
2.6370,2.4306
2.6375,0.2942
2.6380,-1.2318
2.6385,-1.5370
2.6390,-0.3162
2.6395,1.8202
2.6400,3.9565
2.6405,3.6514
2.6410,1.2098
2.6415,-0.9266
2.6420,-0.6214
2.6425,-0.0110
2.6430,-0.0110
2.6435,-0.9266
2.6440,-0.0110
2.6445,2.1254
2.6450,2.1254
2.6455,0.5994
2.6460,-0.3162
2.6465,0.2942
2.6470,1.8202
2.6475,1.8202
2.6480,1.5150
2.6485,1.8202
2.6490,2.1254
2.6495,1.8202
2.6500,1.5150
2.6505,2.4306
2.6510,3.3462
2.6515,2.4306
2.6520,0.5994
2.6525,-0.0110
2.6530,-0.0110
2.6535,-0.3162
2.6540,-0.0110
2.6545,1.2098
2.6550,3.3462
2.6555,3.3462
2.6560,1.2098
2.6565,-0.0110
2.6570,0.2942
2.6575,1.8202
2.6580,1.5150
2.6585,0.2942
2.6590,-0.0110
2.6595,0.9046
2.6600,1.2098
2.6605,0.5994
2.6610,0.9046
2.6615,2.4306
2.6620,3.3462
2.6625,2.7358
2.6630,2.1254
2.6635,1.5150
2.6640,-0.0110
2.6645,-3.0629
2.6650,-5.1993
2.6655,-4.2837
2.6660,-1.8421
2.6665,-0.0110
2.6670,0.9046
2.6675,1.5150
2.6680,2.1254
2.6685,1.8202
2.6690,-0.0110
2.6695,-2.4525
2.6700,-3.9785
2.6705,-3.0629
2.6710,-1.5370
2.6715,-0.9266
2.6720,-1.8421
2.6725,-2.4525
2.6730,-1.5370
2.6735,-0.3162
2.6740,-0.0110
2.6745,-0.0110
2.6750,-0.0110
2.6755,-0.0110
2.6760,-0.6214
2.6765,-0.6214
2.6770,0.2942
2.6775,1.8202
2.6780,1.8202
2.6785,0.2942
2.6790,-0.3162
2.6795,-0.0110
2.6800,1.2098
2.6805,1.8202
2.6810,2.4306
2.6815,2.7358
2.6820,1.8202
2.6825,-0.0110
2.6830,-0.6214
2.6835,0.2942
2.6840,1.8202
2.6845,2.4306
2.6850,2.7358
2.6855,3.3462
2.6860,3.9565
2.6865,2.7358
2.6870,-0.0110
2.6875,-2.4525
2.6880,-3.9785
2.6885,-4.5889
2.6890,-3.6733
2.6895,-1.8421
2.6900,-0.0110
2.6905,0.9046
2.6910,1.5150
2.6915,1.5150
2.6920,-0.0110
2.6925,-1.5370
2.6930,-3.0629
2.6935,-2.7577
2.6940,-1.2318
2.6945,-0.0110
2.6950,-0.0110
2.6955,-0.0110
2.6960,-0.0110
2.6965,-0.0110
2.6970,-0.0110
2.6975,0.9046
2.6980,2.4306
2.6985,1.8202
2.6990,-0.9266
2.6995,-4.8941
2.7000,-7.0305
2.7005,-7.0305
2.7010,-5.1993
2.7015,-2.4525
2.7020,-0.6214
2.7025,-0.6214
2.7030,-0.9266
2.7035,-0.6214
2.7040,-0.3162
2.7045,-1.2318
2.7050,-2.7577
2.7055,-3.0629
2.7060,-4.2837
2.7065,-7.0305
2.7070,-10.0824
2.7075,-9.1668
2.7080,-4.2837
2.7085,-0.3162
2.7090,-0.3162
2.7095,-2.1473
2.7100,-2.7577
2.7105,-1.2318
2.7110,-0.0110
2.7115,0.5994
2.7120,0.5994
2.7125,1.8202
2.7130,5.1773
2.7135,9.7552
2.7140,14.0280
2.7145,16.1643
2.7150,17.6903
2.7155,17.9955
2.7160,16.4695
2.7165,13.1124
2.7170,9.7552
2.7175,7.0085
2.7180,3.0410
2.7185,-2.1473
2.7190,-5.1993
2.7195,-3.6733
2.7200,-1.5370
2.7205,-2.1473
2.7210,-4.8941
2.7215,-5.5045
2.7220,-3.6733
2.7225,-2.7577
2.7230,-3.3681
2.7235,-3.0629
2.7240,-1.8421
2.7245,-1.2318
2.7250,-2.1473
2.7255,-3.3681
2.7260,-4.5889
2.7265,-5.5045
2.7270,-6.1149
2.7275,-4.8941
2.7280,-3.6733
2.7285,-4.5889
2.7290,-7.3356
2.7295,-9.7772
2.7300,-11.3032
2.7305,-12.5240
2.7310,-12.5240
2.7315,-9.4720
2.7320,-3.9785
2.7325,-0.0110
2.7330,0.9046
2.7335,1.5150
2.7340,4.2617
2.7345,8.5345
2.7350,11.8916
2.7355,12.5020
2.7360,10.9760
2.7365,10.3656
2.7370,11.2812
2.7375,13.1124
2.7380,12.8072
2.7385,9.4500
2.7390,4.2617
2.7395,-0.3162
2.7400,-3.6733
2.7405,-5.5045
2.7410,-6.7253
2.7415,-7.6408
2.7420,-8.5564
2.7425,-8.5564
2.7430,-7.3356
2.7435,-5.1993
2.7440,-4.2837
2.7445,-5.8097
2.7450,-9.1668
2.7455,-13.4395
2.7460,-15.8811
2.7465,-12.8291
2.7470,-3.6733
2.7475,6.3981
2.7480,10.9760
2.7485,9.4500
2.7490,10.3656
2.7495,19.2163
2.7500,30.5085
2.7505,35.3916
2.7510,32.3396
2.7515,26.5409
2.7520,21.3526
2.7525,16.1643
2.7530,9.7552
2.7535,3.0410
2.7540,-2.4525
2.7545,-8.2512
2.7550,-14.0499
2.7555,-16.7967
2.7560,-14.6603
2.7565,-9.1668
2.7570,-5.5045
2.7575,-3.9785
2.7580,-2.4525
2.7585,-0.0110
2.7590,1.5150
2.7595,-0.0110
2.7600,-3.0629
2.7605,-4.8941
2.7610,-3.9785
2.7615,-2.1473
2.7620,-0.6214
2.7625,-0.0110
2.7630,0.9046
2.7635,2.7358
2.7640,3.6514
2.7645,2.1254
2.7650,-0.6214
2.7655,-1.8421
2.7660,-0.3162
2.7665,2.1254
2.7670,4.8721
2.7675,7.0085
2.7680,8.8397
2.7685,8.2293
2.7690,5.1773
2.7695,1.8202
2.7700,-0.0110
2.7705,-2.7577
2.7710,-7.9460
2.7715,-12.2188
2.7720,-12.2188
2.7725,-9.1668
2.7730,-8.2512
2.7735,-10.3876
2.7740,-11.9136
2.7745,-10.0824
2.7750,-7.3356
2.7755,-7.3356
2.7760,-10.6928
2.7765,-14.9655
2.7770,-17.1019
2.7775,-15.8811
2.7780,-12.2188
2.7785,-8.2512
2.7790,-5.8097
2.7795,-5.1993
2.7800,-4.5889
2.7805,-4.2837
2.7810,-4.5889
2.7815,-4.2837
2.7820,-1.2318
2.7825,3.0410
2.7830,7.3137
2.7835,10.3656
2.7840,12.5020
2.7845,12.1968
2.7850,9.7552
2.7855,6.3981
2.7860,4.5669
2.7865,3.9565
2.7870,2.7358
2.7875,-0.0110
2.7880,-1.5370
2.7885,-1.5370
2.7890,-0.3162
2.7895,0.5994
2.7900,2.1254
2.7905,4.8721
2.7910,7.6189
2.7915,7.3137
2.7920,3.3462
2.7925,-1.5370
2.7930,-4.5889
2.7935,-4.2837
2.7940,-2.4525
2.7945,-1.5370
2.7950,-0.9266
2.7955,0.9046
2.7960,4.8721
2.7965,8.5345
2.7970,10.3656
2.7975,11.2812
2.7980,12.1968
2.7985,13.7228
2.7990,14.9435
2.7995,15.5539
2.8000,14.9435
2.8005,11.5864
2.8010,6.7033
2.8015,2.1254
2.8020,0.9046
2.8025,2.4306
2.8030,3.9565
2.8035,2.4306
2.8040,-1.8421
2.8045,-7.0305
2.8050,-10.9980
2.8055,-12.8291
2.8060,-12.5240
2.8065,-11.9136
2.8070,-11.3032
2.8075,-11.6084
2.8080,-11.9136
2.8085,-11.6084
2.8090,-10.9980
2.8095,-10.0824
2.8100,-7.3356
2.8105,-2.4525
2.8110,1.5150
2.8115,2.1254
2.8120,-1.5370
2.8125,-4.5889
2.8130,-4.2837
2.8135,-2.1473
2.8140,-1.8421
2.8145,-3.9785
2.8150,-5.8097
2.8155,-6.7253
2.8160,-6.1149
2.8165,-4.5889
2.8170,-1.8421
2.8175,0.5994
2.8180,2.1254
2.8185,3.3462
2.8190,4.2617
2.8195,3.9565
2.8200,0.5994
2.8205,-3.9785
2.8210,-6.7253
2.8215,-5.8097
2.8220,-3.6733
2.8225,-3.6733
2.8230,-4.5889
2.8235,-3.3681
2.8240,0.5994
2.8245,4.5669
2.8250,6.3981
2.8255,7.6189
2.8260,10.3656
2.8265,12.1968
2.8270,10.0604
2.8275,5.4825
2.8280,3.0410
2.8285,3.6514
2.8290,3.6514
2.8295,1.8202
2.8300,0.2942
2.8305,1.2098
2.8310,2.7358
2.8315,1.5150
2.8320,-0.0110
2.8325,0.9046
2.8330,4.8721
2.8335,7.3137
2.8340,5.7877
2.8345,3.6514
2.8350,3.0410
2.8355,3.6514
2.8360,3.6514
2.8365,2.4306
2.8370,0.9046
2.8375,-0.0110
2.8380,-0.0110
2.8385,-0.3162
2.8390,-2.1473
2.8395,-4.8941
2.8400,-6.7253
2.8405,-6.1149
2.8410,-5.1993
2.8415,-6.1149
2.8420,-7.6408
2.8425,-6.7253
2.8430,-3.3681
2.8435,-1.5370
2.8440,-3.0629
2.8445,-5.5045
2.8450,-6.4201
2.8455,-5.8097
2.8460,-4.5889
2.8465,-3.9785
2.8470,-3.0629
2.8475,-2.4525
2.8480,-1.8421
2.8485,-1.2318
2.8490,-0.3162
2.8495,0.5994
2.8500,2.1254
2.8505,3.6514
2.8510,3.9565
2.8515,2.4306
2.8520,0.5994
2.8525,0.9046
2.8530,3.6514
2.8535,5.7877
2.8540,4.8721
2.8545,2.4306
2.8550,1.5150
2.8555,3.3462
2.8560,4.8721
2.8565,4.2617
2.8570,2.7358
2.8575,2.4306
2.8580,2.7358
2.8585,1.8202
2.8590,-0.0110
2.8595,-0.9266
2.8600,-0.0110
2.8605,1.8202
2.8610,3.3462
2.8615,2.7358
2.8620,1.2098
2.8625,-0.0110
2.8630,-0.0110
2.8635,0.9046
2.8640,1.2098
2.8645,0.9046
2.8650,-0.0110
2.8655,-1.8421
2.8660,-4.2837
2.8665,-6.4201
2.8670,-7.9460
2.8675,-7.6408
2.8680,-6.1149
2.8685,-3.6733
2.8690,-2.1473
2.8695,-1.2318
2.8700,-0.6214
2.8705,-0.0110
2.8710,0.9046
2.8715,1.2098
2.8720,1.2098
2.8725,1.2098
2.8730,0.9046
2.8735,0.2942
2.8740,0.2942
2.8745,0.9046
2.8750,1.5150
2.8755,1.8202
2.8760,1.2098
2.8765,1.5150
2.8770,2.7358
2.8775,3.3462
2.8780,2.7358
2.8785,1.2098
2.8790,-0.0110
2.8795,-0.0110
2.8800,0.9046
2.8805,1.8202
2.8810,2.4306
2.8815,2.1254
2.8820,0.9046
2.8825,-0.9266
2.8830,-2.4525
2.8835,-2.7577
2.8840,-1.8421
2.8845,-0.3162
2.8850,-0.0110
2.8855,-0.0110
2.8860,-0.3162
2.8865,-0.0110
2.8870,1.8202
2.8875,3.0410
2.8880,1.5150
2.8885,-0.9266
2.8890,-1.5370
2.8895,1.2098
2.8900,5.7877
2.8905,8.2293
2.8910,8.5345
2.8915,8.8397
2.8920,9.1449
2.8925,9.1449
2.8930,7.6189
2.8935,6.7033
2.8940,6.7033
2.8945,7.6189
2.8950,7.6189
2.8955,7.9241
2.8960,8.2293
2.8965,8.8397
2.8970,8.8397
2.8975,7.9241
2.8980,5.7877
2.8985,1.5150
2.8990,-3.9785
2.8995,-8.2512
2.9000,-8.5564
2.9005,-5.1993
2.9010,-1.2318
2.9015,0.5994
2.9020,-1.5370
2.9025,-9.7772
2.9030,-21.6798
2.9035,-31.4460
2.9040,-34.1928
2.9045,-31.7512
2.9050,-27.7837
2.9055,-22.2902
2.9060,-13.7447
2.9065,-3.6733
2.9070,2.1254
2.9075,0.9046
2.9080,-4.8941
2.9085,-9.4720
2.9090,-9.4720
2.9095,-5.5045
2.9100,-0.0110
2.9105,4.5669
2.9110,7.0085
2.9115,7.9241
2.9120,7.6189
2.9125,6.3981
2.9130,3.3462
2.9135,-0.0110
2.9140,-1.8421
2.9145,-1.8421
2.9150,-0.9266
2.9155,0.2942
2.9160,3.3462
2.9165,7.6189
2.9170,10.0604
2.9175,9.7552
2.9180,9.7552
2.9185,11.5864
2.9190,11.5864
2.9195,7.3137
2.9200,1.8202
2.9205,0.5994
2.9210,3.9565
2.9215,7.0085
2.9220,7.0085
2.9225,5.7877
2.9230,4.8721
2.9235,2.4306
2.9240,-2.4525
2.9245,-6.1149
2.9250,-4.8941
2.9255,-2.1473
2.9260,-3.0629
2.9265,-7.9460
2.9270,-10.6928
2.9275,-7.9460
2.9280,-2.1473
2.9285,1.5150
2.9290,3.9565
2.9295,6.3981
2.9300,7.9241
2.9305,7.3137
2.9310,4.8721
2.9315,3.0410
2.9320,2.4306
2.9325,2.1254
2.9330,2.1254
2.9335,3.3462
2.9340,4.8721
2.9345,4.8721
2.9350,2.4306
2.9355,-0.0110
2.9360,-0.9266
2.9365,-1.5370
2.9370,-2.1473
2.9375,-3.9785
2.9380,-7.0305
2.9385,-11.6084
2.9390,-15.2707
2.9395,-14.9655
2.9400,-12.5240
2.9405,-12.2188
2.9410,-14.6603
2.9415,-16.4915
2.9420,-15.5759
2.9425,-14.6603
2.9430,-13.4395
2.9435,-11.3032
2.9440,-8.2512
2.9445,-8.8616
2.9450,-13.1343
2.9455,-14.9655
2.9460,-9.1668
2.9465,2.7358
2.9470,15.5539
2.9475,24.7098
2.9480,27.7617
2.9485,23.7942
2.9490,17.9955
2.9495,19.5215
2.9500,30.2033
2.9505,39.6643
2.9510,39.0539
2.9515,32.3396
2.9520,27.7617
2.9525,25.3202
2.9530,19.8267
2.9535,11.2812
2.9540,5.4825
2.9545,4.2617
2.9550,3.3462
2.9555,0.9046
2.9560,-0.3162
2.9565,0.2942
2.9570,0.5994
2.9575,-0.6214
2.9580,-1.2318
2.9585,-0.3162
2.9590,-0.0110
2.9595,-0.6214
2.9600,-1.5370
2.9605,-0.6214
2.9610,0.2942
2.9615,0.2942
2.9620,-0.6214
2.9625,-1.2318
2.9630,-1.2318
2.9635,-1.8421
2.9640,-3.3681
2.9645,-4.8941
2.9650,-5.8097
2.9655,-5.5045
2.9660,-3.9785
2.9665,-2.4525
2.9670,-2.1473
2.9675,-3.0629
2.9680,-4.5889
2.9685,-5.5045
2.9690,-6.1149
2.9695,-7.0305
2.9700,-8.5564
2.9705,-10.3876
2.9710,-11.3032
2.9715,-10.9980
2.9720,-10.9980
2.9725,-12.2188
2.9730,-13.4395
2.9735,-13.4395
2.9740,-11.9136
2.9745,-10.0824
2.9750,-8.2512
2.9755,-5.8097
2.9760,-3.3681
2.9765,-2.1473
2.9770,-1.8421
2.9775,-0.0110
2.9780,3.6514
2.9785,7.0085
2.9790,7.0085
2.9795,3.6514
2.9800,0.2942
2.9805,-0.6214
2.9810,-0.0110
2.9815,1.5150
2.9820,1.5150
2.9825,-1.2318
2.9830,-6.1149
2.9835,-9.7772
2.9840,-9.7772
2.9845,-7.9460
2.9850,-6.7253
2.9855,-7.9460
2.9860,-10.0824
2.9865,-12.2188
2.9870,-13.4395
2.9875,-11.9136
2.9880,-6.4201
2.9885,0.5994
2.9890,3.6514
2.9895,1.5150
2.9900,-1.5370
2.9905,-0.6214
2.9910,4.5669
2.9915,9.4500
2.9920,11.8916
2.9925,14.0280
2.9930,15.5539
2.9935,14.0280
2.9940,8.5345
2.9945,3.0410
2.9950,2.7358
2.9955,6.0929
2.9960,7.9241
2.9965,6.3981
2.9970,3.6514
2.9975,3.3462
2.9980,5.4825
2.9985,8.8397
2.9990,11.8916
2.9995,14.6384
3.0000,16.7747
3.0005,17.3851
3.0010,17.3851
3.0015,17.6903
3.0020,17.6903
3.0025,16.4695
3.0030,12.1968
3.0035,5.4825
3.0040,-1.8421
3.0045,-8.5564
3.0050,-14.0499
3.0055,-16.4915
3.0060,-15.5759
3.0065,-14.3551
3.0070,-17.7123
3.0075,-26.5629
3.0080,-36.0239
3.0085,-39.9914
3.0090,-38.1603
3.0095,-34.4979
3.0100,-30.8356
3.0105,-26.2577
3.0110,-20.1538
3.0115,-14.0499
3.0120,-8.5564
3.0125,-1.8421
3.0130,6.0929
3.0135,13.1124
3.0140,15.5539
3.0145,14.3332
3.0150,11.8916
3.0155,8.2293
3.0160,3.0410
3.0165,-1.5370
3.0170,-2.1473
3.0175,1.8202
3.0180,5.7877
3.0185,3.6514
3.0190,-3.6733
3.0195,-9.4720
3.0200,-9.1668
3.0205,-5.1993
3.0210,-2.7577
3.0215,-2.4525
3.0220,-1.8421
3.0225,-0.3162
3.0230,-0.0110
3.0235,0.2942
3.0240,3.6514
3.0245,10.3656
3.0250,15.2487
3.0255,14.9435
3.0260,11.5864
3.0265,8.5345
3.0270,6.3981
3.0275,3.9565
3.0280,2.1254
3.0285,2.7358
3.0290,3.9565
3.0295,3.3462
3.0300,2.1254
3.0305,3.3462
3.0310,6.3981
3.0315,7.6189
3.0320,6.0929
3.0325,5.1773
3.0330,6.7033
3.0335,7.3137
3.0340,5.7877
3.0345,3.9565
3.0350,4.2617
3.0355,4.5669
3.0360,3.0410
3.0365,0.2942
3.0370,-0.0110
3.0375,1.8202
3.0380,3.0410
3.0385,2.4306
3.0390,1.2098
3.0395,0.5994
3.0400,0.5994
3.0405,0.9046
3.0410,1.2098
3.0415,1.8202
3.0420,1.2098
3.0425,-0.6214
3.0430,-3.3681
3.0435,-4.8941
3.0440,-5.1993
3.0445,-4.8941
3.0450,-4.2837
3.0455,-3.0629
3.0460,-1.8421
3.0465,-1.2318
3.0470,-1.5370
3.0475,-1.8421
3.0480,-1.2318
3.0485,0.9046
3.0490,3.0410
3.0495,3.9565
3.0500,3.6514
3.0505,2.1254
3.0510,0.2942
3.0515,-1.5370
3.0520,-2.4525
3.0525,-2.1473
3.0530,-0.9266
3.0535,0.5994
3.0540,3.0410
3.0545,5.1773
3.0550,4.8721
3.0555,3.6514
3.0560,3.6514
3.0565,5.4825
3.0570,5.1773
3.0575,1.5150
3.0580,-1.2318
3.0585,-0.9266
3.0590,-0.0110
3.0595,-0.9266
3.0600,-2.4525
3.0605,-2.1473
3.0610,-1.5370
3.0615,-3.3681
3.0620,-7.0305
3.0625,-8.8616
3.0630,-8.2512
3.0635,-6.4201
3.0640,-1.8421
3.0645,4.8721
3.0650,10.3656
3.0655,10.0604
3.0660,6.3981
3.0665,4.8721
3.0670,5.7877
3.0675,4.5669
3.0680,0.5994
3.0685,-0.3162
3.0690,2.4306
3.0695,5.1773
3.0700,3.9565
3.0705,0.5994
3.0710,-1.5370
3.0715,-2.4525
3.0720,-3.6733
3.0725,-5.1993
3.0730,-6.4201
3.0735,-7.9460
3.0740,-8.8616
3.0745,-8.8616
3.0750,-7.9460
3.0755,-7.6408
3.0760,-7.3356
3.0765,-5.8097
3.0770,-4.5889
3.0775,-4.2837
3.0780,-4.2837
3.0785,-3.0629
3.0790,-0.6214
3.0795,0.2942
3.0800,1.2098
3.0805,2.7358
3.0810,5.4825
3.0815,7.3137
3.0820,7.3137
3.0825,6.0929
3.0830,4.2617
3.0835,1.5150
3.0840,-0.6214
3.0845,-0.9266
3.0850,-0.6214
3.0855,-1.5370
3.0860,-3.6733
3.0865,-3.9785
3.0870,-3.0629
3.0875,-3.3681
3.0880,-5.5045
3.0885,-6.4201
3.0890,-4.2837
3.0895,-2.1473
3.0900,-0.9266
3.0905,-0.0110
3.0910,2.1254
3.0915,2.4306
3.0920,0.9046
3.0925,-0.0110
3.0930,1.5150
3.0934,2.4306
3.0939,0.5994
3.0944,-1.5370
3.0949,-2.1473
3.0954,-0.9266
3.0959,-0.6214
3.0964,-0.6214
3.0969,0.5994
3.0974,2.4306
3.0979,3.3462
3.0984,4.5669
3.0989,8.2293
3.0994,10.6708
3.0999,8.2293
3.1004,3.3462
3.1009,1.8202
3.1014,4.8721
3.1019,6.7033
3.1024,4.8721
3.1029,3.0410
3.1034,3.6514
3.1039,4.8721
3.1044,3.6514
3.1049,1.5150
3.1054,-0.3162
3.1059,-2.1473
3.1064,-3.9785
3.1069,-5.8097
3.1074,-7.3356
3.1079,-8.5564
3.1084,-7.6408
3.1089,-3.3681
3.1094,1.8202
3.1099,4.2617
3.1104,2.7358
3.1109,0.2942
3.1114,-2.4525
3.1119,-7.3356
3.1124,-14.6603
3.1129,-23.5110
3.1134,-32.3616
3.1139,-37.8551
3.1144,-34.4979
3.1149,-23.2058
3.1154,-14.6603
3.1159,-17.7123
3.1164,-24.4265
3.1169,-15.5759
3.1174,11.8916
3.1179,41.8007
3.1184,54.9240
3.1189,48.5149
3.1194,32.0344
3.1199,13.1124
3.1204,-2.1473
3.1209,-9.4720
3.1214,-7.6408
3.1219,-4.2837
3.1224,-5.1993
3.1229,-7.3356
3.1234,-4.2837
3.1239,1.8202
3.1244,5.4825
3.1249,4.8721
3.1254,4.2617
3.1259,5.4825
3.1264,5.7877
3.1269,3.0410
3.1274,-0.0110
3.1279,-1.5370
3.1284,-3.6733
3.1289,-5.8097
3.1294,-4.2837
3.1299,2.1254
3.1304,9.7552
3.1309,13.4176
3.1314,14.9435
3.1319,17.9955
3.1324,21.6578
3.1329,20.7422
3.1334,14.6384
3.1339,7.9241
3.1344,5.4825
3.1349,4.8721
3.1354,3.9565
3.1359,3.3462
3.1364,4.5669
3.1369,6.7033
3.1374,6.3981
3.1379,3.6514
3.1384,1.5150
3.1389,0.9046
3.1394,0.9046
3.1399,0.5994
3.1404,0.2942
3.1409,0.2942
3.1414,-0.0110
3.1419,-1.5370
3.1424,-3.3681
3.1429,-4.2837
3.1434,-2.4525
3.1439,1.8202
3.1444,7.9241
3.1449,11.5864
3.1454,10.3656
3.1459,5.1773
3.1464,-0.0110
3.1469,-2.7577
3.1474,-3.6733
3.1479,-3.0629
3.1484,-1.8421
3.1489,-0.9266
3.1494,-1.2318
3.1499,-2.1473
3.1504,-2.1473
3.1509,-2.1473
3.1514,-2.1473
3.1519,-2.7577
3.1524,-3.3681
3.1529,-3.9785
3.1534,-4.2837
3.1539,-4.8941
3.1544,-4.8941
3.1549,-4.8941
3.1554,-5.1993
3.1559,-5.5045
3.1564,-4.8941
3.1569,-3.9785
3.1574,-3.9785
3.1579,-4.8941
3.1584,-5.1993
3.1589,-5.1993
3.1594,-5.8097
3.1599,-6.7253
3.1604,-6.1149
3.1609,-4.2837
3.1614,-4.5889
3.1619,-6.7253
3.1624,-7.6408
3.1629,-6.1149
3.1634,-3.6733
3.1639,-3.0629
3.1644,-3.3681
3.1649,-2.7577
3.1654,-2.7577
3.1659,-3.6733
3.1664,-4.2837
3.1669,-3.3681
3.1674,-1.8421
3.1679,-1.2318
3.1684,-1.5370
3.1689,-0.6214
3.1694,1.5150
3.1699,5.4825
3.1704,9.7552
3.1709,10.9760
3.1714,7.0085
3.1719,0.5994
3.1724,-3.6733
3.1729,-3.6733
3.1734,-2.7577
3.1739,-3.3681
3.1744,-3.9785
3.1749,-2.7577
3.1754,-0.0110
3.1759,2.1254
3.1764,3.0410
3.1769,2.1254
3.1774,0.5994
3.1779,-0.3162
3.1784,-0.9266
3.1789,-1.5370
3.1794,-1.8421
3.1799,-0.3162
3.1804,3.9565
3.1809,8.5345
3.1814,8.5345
3.1819,4.8721
3.1824,1.8202
3.1829,1.8202
3.1834,3.0410
3.1839,1.5150
3.1844,-1.8421
3.1849,-5.1993
3.1854,-6.7253
3.1859,-7.0305
3.1864,-6.7253
3.1869,-6.7253
3.1874,-7.3356
3.1879,-7.9460
3.1884,-9.4720
3.1889,-13.7447
3.1894,-20.7642
3.1899,-26.5629
3.1904,-27.1733
3.1909,-22.2902
3.1914,-15.8811
3.1919,-10.3876
3.1924,-5.8097
3.1929,-0.9266
3.1934,3.3462
3.1939,5.1773
3.1944,3.0410
3.1949,-1.2318
3.1954,-2.4525
3.1959,1.2098
3.1964,7.0085
3.1969,10.0604
3.1974,12.5020
3.1979,20.7422
3.1984,33.8656
3.1989,41.1903
3.1994,36.6123
3.1999,25.6253
3.2004,17.9955
3.2009,15.5539
3.2014,13.4176
3.2019,8.8397
3.2024,5.4825
3.2029,4.2617
3.2034,3.9565
3.2039,2.4306
3.2044,1.2098
3.2049,1.5150
3.2054,1.8202
3.2059,0.9046
3.2064,-0.6214
3.2069,-1.8421
3.2074,-3.0629
3.2079,-4.5889
3.2084,-5.1993
3.2089,-3.6733
3.2094,-1.2318
3.2099,0.2942
3.2104,0.9046
3.2109,1.5150
3.2114,2.4306
3.2119,3.0410
3.2124,3.3462
3.2129,3.3462
3.2134,2.7358
3.2139,2.1254
3.2144,1.5150
3.2149,1.8202
3.2154,2.4306
3.2159,1.8202
3.2164,0.2942
3.2169,-1.2318
3.2174,-1.8421
3.2179,-0.6214
3.2184,1.8202
3.2189,4.5669
3.2194,5.7877
3.2199,5.4825
3.2204,4.8721
3.2209,4.2617
3.2214,3.0410
3.2219,0.2942
3.2224,-2.1473
3.2229,-3.6733
3.2234,-4.2837
3.2239,-5.1993
3.2244,-6.1149
3.2249,-7.0305
3.2254,-7.9460
3.2259,-8.5564
3.2264,-8.2512
3.2269,-8.8616
3.2274,-15.2707
3.2279,-29.0045
3.2284,-42.7382
3.2289,-47.3161
3.2294,-39.9914
3.2299,-27.4785
3.2304,-17.4071
3.2309,-12.5240
3.2314,-11.3032
3.2319,-10.3876
3.2324,-8.5564
3.2329,-7.0305
3.2334,-7.3356
3.2339,-7.9460
3.2344,-5.8097
3.2349,-2.1473
3.2354,-0.0110
3.2359,0.5994
3.2364,4.8721
3.2369,13.7228
3.2374,21.3526
3.2379,22.2682
3.2384,17.0799
3.2389,11.2812
3.2394,7.9241
3.2399,6.7033
3.2404,8.5345
3.2409,12.5020
3.2414,14.9435
3.2419,12.5020
3.2424,8.2293
3.2429,7.0085
3.2434,9.1449
3.2439,9.1449
3.2444,6.3981
3.2449,4.2617
3.2454,4.8721
3.2459,6.0929
3.2464,5.4825
3.2469,3.9565
3.2474,3.9565
3.2479,4.8721
3.2484,5.4825
3.2489,6.0929
3.2494,7.6189
3.2499,8.5345
3.2504,8.2293
3.2509,7.3137
3.2514,7.0085
3.2519,6.7033
3.2524,5.7877
3.2529,5.1773
3.2534,5.4825
3.2539,5.1773
3.2544,2.1254
3.2549,-1.8421
3.2554,-4.5889
3.2559,-3.9785
3.2564,-1.5370
3.2569,0.9046
3.2574,3.3462
3.2579,5.1773
3.2584,4.5669
3.2589,1.5150
3.2594,-2.1473
3.2599,-5.8097
3.2604,-8.5564
3.2609,-9.4720
3.2614,-8.5564
3.2619,-6.1149
3.2624,-4.2837
3.2629,-2.1473
3.2634,3.3462
3.2639,11.2812
3.2644,14.6384
3.2649,10.6708
3.2654,4.8721
3.2659,3.0410
3.2664,2.4306
3.2669,-1.8421
3.2674,-9.1668
3.2679,-11.9136
3.2684,-8.8616
3.2689,-5.5045
3.2694,-5.5045
3.2699,-6.4201
3.2704,-6.1149
3.2709,-5.8097
3.2714,-6.4201
3.2719,-6.4201
3.2724,-5.1993
3.2729,-5.1993
3.2734,-7.3356
3.2739,-8.2512
3.2744,-6.4201
3.2749,-4.5889
3.2754,-4.8941
3.2759,-5.1993
3.2764,-3.0629
3.2769,-0.0110
3.2774,0.2942
3.2779,-0.9266
3.2784,-1.2318
3.2789,-0.0110
3.2794,0.2942
3.2799,0.2942
3.2804,0.2942
3.2809,0.9046
3.2814,1.2098
3.2819,1.2098
3.2824,-0.0110
3.2829,-2.7577
3.2834,-6.7253
3.2839,-7.9460
3.2844,-6.1149
3.2849,-4.5889
3.2854,-5.5045
3.2859,-5.1993
3.2864,-0.6214
3.2869,4.8721
3.2874,6.3981
3.2879,2.7358
3.2884,-0.9266
3.2889,-2.7577
3.2894,-3.6733
3.2899,-5.1993
3.2904,-6.4201
3.2909,-6.4201
3.2914,-5.8097
3.2919,-4.5889
3.2924,-3.6733
3.2929,-1.8421
3.2934,2.7358
3.2939,11.2812
3.2944,20.1318
3.2949,23.1838
3.2954,18.6059
3.2959,11.5864
3.2964,7.9241
3.2969,8.8397
3.2974,10.6708
3.2979,10.6708
3.2984,9.1449
3.2989,5.4825
3.2994,1.8202
3.2999,-0.0110
3.3004,-0.0110
3.3009,-1.8421
3.3014,-5.8097
3.3019,-8.2512
3.3024,-7.0305
3.3029,-5.8097
3.3034,-7.9460
3.3039,-10.6928
3.3044,-10.3876
3.3049,-7.3356
3.3054,-5.8097
3.3059,-4.8941
3.3064,-3.0629
3.3069,-0.0110
3.3074,4.5669
3.3079,13.1124
3.3084,24.4046
3.3089,33.5604
3.3094,34.4760
3.3099,29.8981
3.3104,27.1513
3.3109,27.7617
3.3114,27.1513
3.3119,22.2682
3.3124,16.4695
3.3129,11.5864
3.3134,6.3981
3.3139,0.5994
3.3144,-2.4525
3.3149,-1.2318
3.3154,0.5994
3.3159,0.2942
3.3164,-2.1473
3.3169,-4.5889
3.3174,-6.1149
3.3179,-6.4201
3.3184,-6.4201
3.3189,-5.5045
3.3194,-4.2837
3.3199,-3.6733
3.3204,-3.0629
3.3209,-2.7577
3.3214,-3.0629
3.3219,-5.8097
3.3224,-9.4720
3.3229,-12.8291
3.3234,-14.9655
3.3239,-17.1019
3.3244,-19.2382
3.3249,-20.4590
3.3254,-18.3226
3.3259,-14.3551
3.3264,-10.6928
3.3269,-8.5564
3.3274,-6.7253
3.3279,-3.9785
3.3284,-1.8421
3.3289,-2.1473
3.3294,-4.2837
3.3299,-5.5045
3.3304,-5.5045
3.3309,-6.4201
3.3314,-7.9460
3.3319,-7.9460
3.3324,-5.8097
3.3329,-3.6733
3.3334,-2.4525
3.3339,-0.6214
3.3344,4.5669
3.3349,10.9760
3.3354,14.3332
3.3359,13.1124
3.3364,10.0604
3.3369,8.2293
3.3374,8.2293
3.3379,8.2293
3.3384,7.9241
3.3389,7.6189
3.3394,6.0929
3.3399,3.0410
3.3404,-0.6214
3.3409,-3.9785
3.3414,-5.5045
3.3419,-4.8941
3.3424,-3.3681
3.3429,-3.0629
3.3434,-6.1149
3.3439,-12.5240
3.3444,-19.8486
3.3449,-23.8161
3.3454,-24.1213
3.3459,-22.2902
3.3464,-21.0694
3.3469,-19.2382
3.3474,-14.6603
3.3479,-6.7253
3.3484,1.2098
3.3489,7.0085
3.3494,9.1449
3.3499,8.8397
3.3504,5.1773
3.3509,-1.2318
3.3514,-9.4720
3.3519,-15.2707
3.3524,-16.1863
3.3529,-13.4395
3.3534,-10.3876
3.3539,-8.2512
3.3544,-7.3356
3.3549,-6.7253
3.3554,-5.1993
3.3559,-2.4525
3.3564,-0.3162
3.3569,-0.0110
3.3574,-0.0110
3.3579,0.2942
3.3584,2.4306
3.3589,5.1773
3.3594,6.7033
3.3599,7.0085
3.3604,6.7033
3.3609,6.3981
3.3614,6.3981
3.3619,6.7033
3.3624,6.7033
3.3629,6.0929
3.3634,5.7877
3.3639,6.3981
3.3644,7.0085
3.3649,5.7877
3.3654,3.0410
3.3659,0.9046
3.3664,-0.0110
3.3669,0.2942
3.3674,1.8202
3.3679,3.9565
3.3684,5.7877
3.3689,5.7877
3.3694,4.5669
3.3699,3.9565
3.3704,4.5669
3.3709,5.4825
3.3714,4.5669
3.3719,1.5150
3.3724,-1.2318
3.3729,-2.1473
3.3734,-0.0110
3.3739,3.6514
3.3744,5.4825
3.3749,3.0410
3.3754,-0.6214
3.3759,-2.4525
3.3764,-1.5370
3.3769,0.5994
3.3774,1.5150
3.3779,2.1254
3.3784,3.3462
3.3789,4.5669
3.3794,4.5669
3.3799,3.6514
3.3804,2.7358
3.3809,2.7358
3.3814,3.6514
3.3819,4.8721
3.3824,5.1773
3.3829,4.5669
3.3834,3.6514
3.3839,3.0410
3.3844,3.9565
3.3849,5.4825
3.3854,7.0085
3.3859,7.6189
3.3864,6.0929
3.3869,3.0410
3.3874,-0.0110
3.3879,-0.6214
3.3884,-0.9266
3.3889,-3.9785
3.3894,-8.8616
3.3899,-12.5240
3.3904,-12.2188
3.3909,-10.3876
3.3914,-12.2188
3.3919,-18.0175
3.3924,-21.9850
3.3929,-19.5434
3.3934,-10.9980
3.3939,-1.5370
3.3944,7.0085
3.3949,14.9435
3.3954,21.6578
3.3959,25.3202
3.3964,26.5409
3.3969,26.5409
3.3974,24.7098
3.3979,18.3007
3.3984,9.1449
3.3989,3.6514
3.3994,3.9565
3.3999,4.5669
3.4004,-0.3162
3.4009,-9.1668
3.4014,-15.5759
3.4019,-16.1863
3.4024,-14.0499
3.4029,-11.3032
3.4034,-8.2512
3.4039,-4.2837
3.4044,-1.2318
3.4049,-2.1473
3.4054,-7.3356
3.4059,-12.5240
3.4064,-12.8291
3.4069,-7.3356
3.4074,-3.3681
3.4079,-5.8097
3.4084,-8.2512
3.4089,-0.9266
3.4094,16.4695
3.4099,34.1708
3.4104,41.4955
3.4109,37.5279
3.4114,26.2357
3.4119,10.3656
3.4124,-4.2837
3.4129,-10.3876
3.4134,-4.8941
3.4139,3.0410
3.4144,6.3981
3.4149,5.4825
3.4154,4.8721
3.4159,5.1773
3.4164,4.5669
3.4169,3.9565
3.4174,5.4825
3.4179,6.7033
3.4184,4.5669
3.4189,1.2098
3.4194,-0.0110
3.4199,-0.0110
3.4204,-1.2318
3.4209,-3.3681
3.4214,-3.3681
3.4219,-2.4525
3.4224,-3.0629
3.4229,-4.5889
3.4234,-4.5889
3.4239,-3.9785
3.4244,-4.5889
3.4249,-6.1149
3.4254,-6.7253
3.4259,-6.4201
3.4264,-6.7253
3.4269,-6.4201
3.4274,-4.8941
3.4279,-3.3681
3.4284,-3.6733
3.4289,-5.1993
3.4294,-5.1993
3.4299,-3.9785
3.4304,-3.3681
3.4309,-3.6733
3.4314,-3.0629
3.4319,-1.8421
3.4324,-1.5370
3.4329,-2.1473
3.4334,-2.7577
3.4339,-2.1473
3.4344,-2.1473
3.4349,-3.3681
3.4354,-4.8941
3.4359,-4.2837
3.4364,-2.7577
3.4369,-1.8421
3.4374,-1.8421
3.4379,-1.8421
3.4384,-2.1473
3.4389,-3.3681
3.4394,-5.1993
3.4399,-5.8097
3.4404,-4.8941
3.4409,-4.5889
3.4414,-5.1993
3.4419,-5.5045
3.4424,-3.9785
3.4429,-2.1473
3.4434,-2.1473
3.4439,-2.4525
3.4444,-1.5370
3.4449,-0.0110
3.4454,-0.0110
3.4459,-0.9266
3.4464,-0.9266
3.4469,0.2942
3.4474,1.5150
3.4479,1.8202
3.4484,1.5150
3.4489,2.1254
3.4494,1.8202
3.4499,0.9046
3.4504,-0.0110
3.4509,0.9046
3.4514,1.5150
3.4519,0.9046
3.4524,0.2942
3.4529,0.5994
3.4534,0.9046
3.4539,-0.3162
3.4544,-3.0629
3.4549,-4.8941
3.4554,-4.5889
3.4559,-3.3681
3.4564,-2.1473
3.4569,-0.6214
3.4574,0.5994
3.4579,1.2098
3.4584,0.9046
3.4589,0.5994
3.4594,0.2942
3.4599,-0.0110
3.4604,-0.6214
3.4609,-0.0110
3.4614,2.7358
3.4619,4.5669
3.4624,4.5669
3.4629,3.6514
3.4634,3.3462
3.4639,3.6514
3.4644,2.7358
3.4649,1.5150
3.4654,1.5150
3.4659,2.1254
3.4664,1.5150
3.4669,-0.6214
3.4674,-3.3681
3.4679,-4.5889
3.4684,-4.2837
3.4689,-3.9785
3.4694,-3.6733
3.4699,-3.3681
3.4704,-2.4525
3.4709,-1.8421
3.4714,-0.6214
3.4719,0.5994
3.4724,3.0410
3.4729,6.3981
3.4734,10.0604
3.4739,12.1968
3.4744,11.5864
3.4749,8.5345
3.4754,5.1773
3.4759,3.6514
3.4764,3.0410
3.4769,2.7358
3.4774,3.0410
3.4779,5.4825
3.4784,7.6189
3.4789,7.0085
3.4794,3.6514
3.4799,-0.6214
3.4804,-6.7253
3.4809,-14.0499
3.4814,-18.6278
3.4819,-15.8811
3.4824,-8.8616
3.4829,-4.2837
3.4834,-4.5889
3.4839,-4.5889
3.4844,-1.2318
3.4849,-0.0110
3.4854,-6.1149
3.4859,-16.1863
3.4864,-22.2902
3.4869,-20.1538
3.4874,-12.5240
3.4879,-3.3681
3.4884,4.5669
3.4889,9.4500
3.4894,9.7552
3.4899,8.5345
3.4904,8.8397
3.4909,10.0604
3.4914,8.8397
3.4919,5.4825
3.4924,4.2617
3.4929,6.3981
3.4934,7.6189
3.4939,3.9565
3.4944,-0.6214
3.4949,-0.9266
3.4954,3.3462
3.4959,7.6189
3.4964,7.3137
3.4969,3.9565
3.4974,1.5150
3.4979,1.2098
3.4984,0.9046
3.4989,-0.0110
3.4994,-0.6214
3.4999,-0.0110
3.5004,0.2942
3.5009,-1.2318
3.5014,-3.0629
3.5019,-1.8421
3.5024,2.1254
3.5029,4.8721
3.5034,3.0410
3.5039,-2.4525
3.5044,-7.9460
3.5049,-11.3032
3.5054,-11.6084
3.5059,-9.1668
3.5064,-5.5045
3.5069,-3.0629
3.5074,-2.1473
3.5079,-1.5370
3.5084,0.9046
3.5089,3.9565
3.5094,4.8721
3.5099,3.9565
3.5104,4.2617
3.5109,6.0929
3.5114,8.5345
3.5119,9.1449
3.5124,8.2293
3.5129,6.7033
3.5134,5.1773
3.5139,3.3462
3.5144,1.2098
3.5149,-0.0110
3.5154,0.2942
3.5159,2.7358
3.5164,4.5669
3.5169,4.2617
3.5174,2.7358
3.5179,3.3462
3.5184,5.4825
3.5189,5.4825
3.5194,2.4306
3.5199,-0.0110
3.5204,-0.0110
3.5209,-0.0110
3.5214,-1.5370
3.5219,-4.5889
3.5224,-4.8941
3.5229,-3.0629
3.5234,-1.8421
3.5239,-1.8421
3.5244,-1.2318
3.5249,-0.6214
3.5254,-0.9266
3.5259,-2.7577
3.5264,-2.7577
3.5269,-0.9266
3.5274,0.2942
3.5279,0.2942
3.5284,0.2942
3.5289,0.2942
3.5294,-0.0110
3.5299,-0.0110
3.5304,-0.0110
3.5309,0.5994
3.5314,0.2942
3.5319,-0.3162
3.5324,-0.9266
3.5329,-0.3162
3.5334,-0.0110
3.5339,-0.9266
3.5344,-2.1473
3.5349,-2.1473
3.5354,-0.9266
3.5359,0.2942
3.5364,0.5994
3.5369,-0.0110
3.5374,0.5994
3.5379,1.8202
3.5384,2.1254
3.5389,0.2942
3.5394,-1.2318
3.5399,-0.9266
3.5404,-0.0110
3.5409,-0.3162
3.5414,-0.9266
3.5419,-0.6214
3.5424,0.9046
3.5429,1.5150
3.5434,1.2098
3.5439,2.7358
3.5444,6.0929
3.5449,9.1449
3.5454,10.6708
3.5459,11.5864
3.5464,11.8916
3.5469,10.6708
3.5474,8.8397
3.5479,8.5345
3.5484,8.8397
3.5489,6.7033
3.5494,2.4306
3.5499,-0.3162
3.5504,-1.8421
3.5509,-3.6733
3.5514,-5.1993
3.5519,-5.1993
3.5524,-4.5889
3.5529,-8.2512
3.5534,-15.8811
3.5539,-23.5110
3.5544,-27.7837
3.5549,-30.2252
3.5554,-30.2252
3.5559,-26.2577
3.5564,-19.5434
3.5569,-15.2707
3.5574,-16.7967
3.5579,-20.1538
3.5584,-19.5434
3.5589,-14.0499
3.5594,-6.7253
3.5599,-1.5370
3.5604,-0.9266
3.5609,-1.8421
3.5614,1.8202
3.5619,14.6384
3.5624,30.8137
3.5629,39.9695
3.5634,37.8331
3.5639,30.2033
3.5644,23.7942
3.5649,19.5215
3.5654,15.2487
3.5659,10.9760
3.5664,8.5345
3.5669,6.7033
3.5674,4.5669
3.5679,2.4306
3.5684,2.1254
3.5689,2.1254
3.5694,0.9046
3.5699,-0.6214
3.5704,-2.7577
3.5709,-4.8941
3.5714,-7.0305
3.5719,-7.9460
3.5724,-6.4201
3.5729,-3.3681
3.5734,-1.2318
3.5739,-1.5370
3.5744,-3.0629
3.5749,-4.2837
3.5754,-5.1993
3.5759,-6.1149
3.5764,-6.4201
3.5769,-4.2837
3.5774,-0.6214
3.5779,2.4306
3.5784,3.9565
3.5789,4.2617
3.5794,5.4825
3.5799,7.9241
3.5804,9.4500
3.5809,8.5345
3.5814,5.7877
3.5819,2.1254
3.5824,-1.5370
3.5829,-5.8097
3.5834,-8.8616
3.5839,-8.8616
3.5844,-7.0305
3.5849,-6.4201
3.5854,-6.4201
3.5859,-5.8097
3.5864,-3.3681
3.5869,-1.5370
3.5874,-2.4525
3.5879,-3.3681
3.5884,-2.4525
3.5889,-0.9266
3.5894,-0.6214
3.5899,-1.2318
3.5904,-1.8421
3.5909,-0.9266
3.5914,-0.0110
3.5919,0.2942
3.5924,0.9046
3.5929,1.5150
3.5934,2.4306
3.5939,3.0410
3.5944,3.9565
3.5949,3.9565
3.5954,0.5994
3.5959,-4.8941
3.5964,-9.7772
3.5969,-10.6928
3.5974,-7.3356
3.5979,-2.7577
3.5984,-0.3162
3.5989,-0.9266
3.5994,-2.1473
3.5999,-1.5370
3.6004,-0.3162
3.6009,-0.6214
3.6014,-3.3681
3.6019,-5.8097
3.6024,-6.1149
3.6029,-4.8941
3.6034,-4.5889
3.6039,-4.2837
3.6044,-3.6733
3.6049,-3.3681
3.6054,-3.3681
3.6059,-2.1473
3.6064,-0.0110
3.6069,0.9046
3.6074,-0.0110
3.6079,-1.2318
3.6084,-0.0110
3.6089,2.4306
3.6094,2.1254
3.6099,-0.3162
3.6104,-2.4525
3.6109,-2.7577
3.6114,-3.0629
3.6119,-2.7577
3.6124,-0.6214
3.6129,1.5150
3.6134,2.4306
3.6139,1.8202
3.6144,3.0410
3.6149,6.0929
3.6154,7.6189
3.6159,6.0929
3.6164,3.6514
3.6169,1.8202
3.6174,0.5994
3.6179,-0.3162
3.6184,-0.9266
3.6189,-0.0110
3.6194,1.5150
3.6199,2.1254
3.6204,1.2098
3.6209,-0.0110
3.6214,-0.3162
3.6219,0.9046
3.6224,2.4306
3.6229,2.4306
3.6234,0.2942
3.6239,-1.8421
3.6244,-2.1473
3.6249,-0.9266
3.6254,-0.0110
3.6259,-0.0110
3.6264,-0.0110
3.6269,1.5150
3.6274,2.7358
3.6279,2.4306
3.6284,2.1254
3.6289,3.0410
3.6294,3.9565
3.6299,3.0410
3.6304,1.2098
3.6309,0.2942
3.6314,1.5150
3.6319,3.3462
3.6324,1.8202
3.6329,-2.1473
3.6334,-5.8097
3.6339,-5.8097
3.6344,-2.7577
3.6349,-0.6214
3.6354,-2.1473
3.6359,-5.8097
3.6364,-10.0824
3.6369,-12.8291
3.6374,-14.0499
3.6379,-14.3551
3.6384,-14.3551
3.6389,-12.5240
3.6394,-7.6408
3.6399,-2.4525
3.6404,-0.9266
3.6409,-4.5889
3.6414,-9.1668
3.6419,-10.0824
3.6424,-7.9460
3.6429,-4.8941
3.6434,-0.0110
3.6439,11.5864
3.6444,26.8461
3.6449,36.0020
3.6454,33.8656
3.6459,27.1513
3.6464,24.0994
3.6469,25.3202
3.6474,24.0994
3.6479,17.6903
3.6484,10.3656
3.6489,6.3981
3.6494,6.0929
3.6499,6.7033
3.6504,5.1773
3.6509,1.2098
3.6514,-2.1473
3.6519,-2.7577
3.6524,-0.6214
3.6529,-0.0110
3.6534,-0.9266
3.6539,-1.8421
3.6544,-0.3162
3.6549,0.9046
3.6554,-0.3162
3.6558,-3.0629
3.6563,-4.2837
3.6568,-5.1993
3.6573,-8.2512
3.6578,-12.2188
3.6583,-11.9136
3.6588,-8.5564
3.6593,-7.6408
3.6598,-10.9980
3.6603,-13.1343
3.6608,-10.0824
3.6613,-4.2837
3.6618,-0.0110
3.6623,1.2098
3.6628,0.9046
3.6633,0.5994
3.6638,0.9046
3.6643,1.8202
3.6648,2.4306
3.6653,2.1254
3.6658,6.0929
3.6663,17.3851
3.6668,32.0344
3.6673,39.6643
3.6678,35.0864
3.6683,23.4890
3.6688,14.6384
3.6693,8.2293
3.6698,-0.0110
3.6703,-11.3032
3.6708,-21.3746
3.6713,-25.0369
3.6718,-21.9850
3.6723,-14.0499
3.6728,-3.9785
3.6733,2.7358
3.6738,3.3462
3.6743,-0.9266
3.6748,-5.5045
3.6753,-5.5045
3.6758,-3.0629
3.6763,-1.8421
3.6768,-2.7577
3.6773,-2.7577
3.6778,-1.8421
3.6783,-1.2318
3.6788,-1.8421
3.6793,-1.8421
3.6798,-0.6214
3.6803,-0.0110
3.6808,-0.6214
3.6813,-1.5370
3.6818,-1.5370
3.6823,-1.2318
3.6828,-1.5370
3.6833,-1.8421
3.6838,-1.5370
3.6843,-0.6214
3.6848,-0.3162
3.6853,-1.2318
3.6858,-1.8421
3.6863,-2.4525
3.6868,-3.0629
3.6873,-3.3681
3.6878,-2.4525
3.6883,-1.8421
3.6888,-2.1473
3.6893,-2.7577
3.6898,-1.8421
3.6903,-0.6214
3.6908,-0.6214
3.6913,-1.5370
3.6918,-1.5370
3.6923,-0.0110
3.6928,-0.0110
3.6933,-0.9266
3.6938,-2.1473
3.6943,-2.1473
3.6948,-0.9266
3.6953,-0.0110
3.6958,0.9046
3.6963,1.5150
3.6968,0.5994
3.6973,-0.9266
3.6978,-2.1473
3.6983,-1.8421
3.6988,-1.5370
3.6993,-2.7577
3.6998,-4.5889
3.7003,-4.8941
3.7008,-3.6733
3.7013,-2.7577
3.7018,-2.4525
3.7023,-2.4525
3.7028,-2.4525
3.7033,-2.4525
3.7038,-3.0629
3.7043,-3.3681
3.7048,-2.7577
3.7053,-1.8421
3.7058,-1.5370
3.7063,-2.1473
3.7068,-3.3681
3.7073,-3.6733
3.7078,-2.7577
3.7083,-0.9266
3.7088,-0.0110
3.7093,-0.0110
3.7098,-0.6214
3.7103,-0.3162
3.7108,0.2942
3.7113,-0.0110
3.7118,-0.9266
3.7123,-0.9266
3.7128,0.2942
3.7133,1.2098
3.7138,0.5994
3.7143,-0.3162
3.7148,-0.3162
3.7153,-0.0110
3.7158,0.2942
3.7163,-0.0110
3.7168,0.5994
3.7173,2.4306
3.7178,3.6514
3.7183,4.2617
3.7188,4.5669
3.7193,5.1773
3.7198,3.9565
3.7203,0.9046
3.7208,-1.8421
3.7213,-2.7577
3.7218,-2.4525
3.7223,-2.7577
3.7228,-4.2837
3.7233,-5.5045
3.7238,-4.8941
3.7243,-4.2837
3.7248,-4.2837
3.7253,-5.5045
3.7258,-6.4201
3.7263,-6.4201
3.7268,-6.1149
3.7273,-6.1149
3.7278,-4.5889
3.7283,-0.6214
3.7288,4.5669
3.7293,9.4500
3.7298,11.2812
3.7303,10.3656
3.7308,7.3137
3.7313,3.9565
3.7318,2.1254
3.7323,3.3462
3.7328,6.0929
3.7333,7.0085
3.7338,5.1773
3.7343,2.4306
3.7348,1.5150
3.7353,2.4306
3.7358,3.0410
3.7363,1.8202
3.7368,-0.0110
3.7373,-0.6214
3.7378,0.2942
3.7383,2.1254
3.7388,1.8202
3.7393,-0.0110
3.7398,-0.3162
3.7403,0.9046
3.7408,3.6514
3.7413,4.2617
3.7418,2.1254
3.7423,-0.0110
3.7428,0.5994
3.7433,3.3462
3.7438,5.1773
3.7443,5.4825
3.7448,3.9565
3.7453,1.8202
3.7458,-0.0110
3.7463,0.2942
3.7468,3.0410
3.7473,6.3981
3.7478,8.2293
3.7483,8.2293
3.7488,7.6189
3.7493,7.0085
3.7498,5.1773
3.7503,1.2098
3.7508,-4.5889
3.7513,-10.6928
3.7518,-13.7447
3.7523,-12.5240
3.7528,-9.1668
3.7533,-7.3356
3.7538,-7.6408
3.7543,-6.4201
3.7548,-2.1473
3.7553,1.8202
3.7558,1.8202
3.7563,-0.6214
3.7568,-1.8421
3.7573,0.2942
3.7578,3.3462
3.7583,4.5669
3.7588,5.7877
3.7593,6.7033
3.7598,5.7877
3.7603,3.0410
3.7608,1.5150
3.7613,2.1254
3.7618,2.4306
3.7623,1.2098
3.7628,1.2098
3.7633,3.9565
3.7638,6.3981
3.7643,5.1773
3.7648,3.9565
3.7653,6.3981
3.7658,10.3656
3.7663,10.6708
3.7668,6.3981
3.7673,2.1254
3.7678,-0.0110
3.7683,-1.8421
3.7688,-3.0629
3.7693,-0.9266
3.7698,4.2617
3.7703,8.5345
3.7708,8.8397
3.7713,6.3981
3.7718,4.2617
3.7723,2.7358
3.7728,0.2942
3.7733,-1.5370
3.7738,-2.4525
3.7743,-4.2837
3.7748,-8.5564
3.7753,-13.1343
3.7758,-13.1343
3.7763,-8.2512
3.7768,-3.0629
3.7773,-0.6214
3.7778,-1.8421
3.7783,-7.3356
3.7788,-19.5434
3.7793,-34.8031
3.7798,-41.8226
3.7803,-32.0564
3.7808,-12.5240
3.7813,0.9046
3.7818,1.5150
3.7823,-3.0629
3.7828,-3.6733
3.7833,-0.3162
3.7838,0.5994
3.7843,-0.6214
3.7848,-1.2318
3.7853,0.2942
3.7858,0.5994
3.7863,-2.1473
3.7868,-6.4201
3.7873,-8.8616
3.7878,-7.0305
3.7883,-1.5370
3.7888,3.9565
3.7893,5.1773
3.7898,1.5150
3.7903,-2.4525
3.7908,-2.4525
3.7913,0.5994
3.7918,3.0410
3.7923,2.7358
3.7928,0.9046
3.7933,-0.9266
3.7938,-3.6733
3.7943,-6.4201
3.7948,-7.6408
3.7953,-5.5045
3.7958,0.9046
3.7963,10.9760
3.7968,22.8786
3.7973,32.9500
3.7978,38.4435
3.7983,38.1383
3.7988,32.0344
3.7993,24.0994
3.7998,18.6059
3.8003,16.4695
3.8008,15.8591
3.8013,14.6384
3.8018,11.8916
3.8023,8.2293
3.8028,3.9565
3.8033,-0.0110
3.8038,-1.5370
3.8043,-0.9266
3.8048,-0.0110
3.8053,-0.3162
3.8058,-0.3162
3.8063,-0.0110
3.8068,-0.0110
3.8073,-0.6214
3.8078,-0.6214
3.8083,-0.3162
3.8088,-0.9266
3.8093,-3.6733
3.8098,-5.8097
3.8103,-6.4201
3.8108,-6.7253
3.8113,-8.5564
3.8118,-10.6928
3.8123,-11.3032
3.8128,-11.9136
3.8133,-13.1343
3.8138,-14.6603
3.8143,-14.9655
3.8148,-13.7447
3.8153,-12.2188
3.8158,-11.3032
3.8163,-12.5240
3.8168,-14.6603
3.8173,-14.6603
3.8178,-10.9980
3.8183,-7.0305
3.8188,-4.5889
3.8193,-1.2318
3.8198,7.3137
3.8203,19.2163
3.8208,25.0150
3.8213,20.7422
3.8218,13.1124
3.8223,9.4500
3.8228,8.8397
3.8233,6.7033
3.8238,2.4306
3.8243,-0.9266
3.8248,-2.4525
3.8253,-2.1473
3.8258,-1.2318
3.8263,-0.0110
3.8268,0.5994
3.8273,0.5994
3.8278,0.5994
3.8283,0.2942
3.8288,-0.3162
3.8293,-2.1473
3.8298,-3.0629
3.8303,-2.4525
3.8308,-1.8421
3.8313,-2.7577
3.8318,-3.9785
3.8323,-3.3681
3.8328,-2.4525
3.8333,-2.4525
3.8338,-3.0629
3.8343,-2.7577
3.8348,-1.8421
3.8353,-2.1473
3.8358,-3.6733
3.8363,-3.9785
3.8368,-2.7577
3.8373,-1.8421
3.8378,-2.7577
3.8383,-3.6733
3.8388,-3.6733
3.8393,-3.3681
3.8398,-3.3681
3.8403,-3.6733
3.8408,-3.9785
3.8413,-4.5889
3.8418,-4.8941
3.8423,-4.2837
3.8428,-3.6733
3.8433,-4.2837
3.8438,-4.5889
3.8443,-3.3681
3.8448,-1.2318
3.8453,-0.6214
3.8458,-1.2318
3.8463,-1.2318
3.8468,-0.0110
3.8473,-0.0110
3.8478,-0.6214
3.8483,-1.8421
3.8488,-1.5370
3.8493,-1.8421
3.8498,-2.7577
3.8503,-1.5370
3.8508,1.2098
3.8513,2.1254
3.8518,-0.3162
3.8523,-3.9785
3.8528,-5.5045
3.8533,-4.8941
3.8538,-4.5889
3.8543,-3.3681
3.8548,-1.2318
3.8553,-0.9266
3.8558,-3.0629
3.8563,-3.3681
3.8568,0.9046
3.8573,5.7877
3.8578,6.0929
3.8583,2.7358
3.8588,0.2942
3.8593,-0.6214
3.8598,-2.1473
3.8603,-3.3681
3.8608,-2.1473
3.8613,-0.6214
3.8618,-1.5370
3.8623,-2.7577
3.8628,-0.0110
3.8633,5.4825
3.8638,7.9241
3.8643,6.0929
3.8648,3.3462
3.8653,2.7358
3.8658,3.0410
3.8663,2.7358
3.8668,3.3462
3.8673,4.2617
3.8678,3.6514
3.8683,1.2098
3.8688,1.5150
3.8693,5.1773
3.8698,7.9241
3.8703,6.7033
3.8708,3.9565
3.8713,3.0410
3.8718,3.0410
3.8723,3.0410
3.8728,2.7358
3.8733,3.3462
3.8738,3.3462
3.8743,0.5994
3.8748,-2.4525
3.8753,-3.0629
3.8758,-0.0110
3.8763,2.7358
3.8768,3.0410
3.8773,1.8202
3.8778,1.2098
3.8783,2.1254
3.8788,2.7358
3.8793,2.4306
3.8798,1.8202
3.8803,1.8202
3.8808,1.8202
3.8813,2.4306
3.8818,2.4306
3.8823,2.4306
3.8828,2.4306
3.8833,1.5150
3.8838,-0.0110
3.8843,-1.5370
3.8848,-1.8421
3.8853,-0.6214
3.8858,0.5994
3.8863,1.2098
3.8868,1.5150
3.8873,2.1254
3.8878,2.7358
3.8883,1.2098
3.8888,-2.1473
3.8893,-6.1149
3.8898,-8.8616
3.8903,-9.1668
3.8908,-7.3356
3.8913,-4.2837
3.8918,-1.8421
3.8923,-0.9266
3.8928,-0.9266
3.8933,0.2942
3.8938,2.1254
3.8943,2.7358
3.8948,1.2098
3.8953,1.5150
3.8958,4.8721
3.8963,9.1449
3.8968,9.1449
3.8973,4.8721
3.8978,-0.0110
3.8983,-1.8421
3.8988,0.9046
3.8993,5.1773
3.8998,5.4825
3.9003,1.2098
3.9008,-3.0629
3.9013,-3.6733
3.9018,-1.2318
3.9023,-0.0110
3.9028,-1.5370
3.9033,-2.7577
3.9038,-0.6214
3.9043,2.4306
3.9048,3.0410
3.9053,1.8202
3.9058,1.5150
3.9063,3.3462
3.9068,4.5669
3.9073,3.9565
3.9078,3.9565
3.9083,5.7877
3.9088,7.0085
3.9093,6.0929
3.9098,4.8721
3.9103,5.1773
3.9108,4.8721
3.9113,2.1254
3.9118,-1.5370
3.9123,-4.5889
3.9128,-8.5564
3.9133,-14.3551
3.9138,-19.5434
3.9143,-18.3226
3.9148,-10.0824
3.9153,-1.8421
3.9158,0.2942
3.9163,-1.8421
3.9168,-3.6733
3.9173,-3.0629
3.9178,-1.2318
3.9183,-0.6214
3.9188,-0.9266
3.9193,-0.9266
3.9198,-0.0110
3.9203,1.8202
3.9208,3.3462
3.9213,3.6514
3.9218,2.4306
3.9223,-0.6214
3.9228,-5.5045
3.9233,-9.7772
3.9238,-11.9136
3.9243,-12.2188
3.9248,-11.6084
3.9253,-10.0824
3.9258,-7.0305
3.9263,-3.0629
3.9268,-1.5370
3.9273,-2.4525
3.9278,-2.4525
3.9283,0.2942
3.9288,3.6514
3.9293,3.3462
3.9298,-0.0110
3.9303,-3.3681
3.9308,-5.8097
3.9313,-7.0305
3.9318,-7.0305
3.9323,-4.5889
3.9328,-0.9266
3.9333,1.2098
3.9338,1.5150
3.9343,1.8202
3.9348,3.6514
3.9353,6.7033
3.9358,10.0604
3.9363,12.8072
3.9368,13.7228
3.9373,12.1968
3.9378,8.8397
3.9383,5.7877
3.9388,4.5669
3.9393,4.5669
3.9398,3.6514
3.9403,3.0410
3.9408,3.0410
3.9413,3.0410
3.9418,2.1254
3.9423,0.2942
3.9428,-0.3162
3.9433,-0.3162
3.9438,-0.0110
3.9443,0.2942
3.9448,0.9046
3.9453,1.5150
3.9458,0.5994
3.9463,-0.3162
3.9468,-0.9266
3.9473,-0.0110
3.9478,0.2942
3.9483,-0.0110
3.9488,-0.6214
3.9493,-0.3162
3.9498,-0.0110
3.9503,-0.0110
3.9508,-0.6214
3.9513,-0.0110
3.9518,0.5994
3.9523,1.2098
3.9528,1.5150
3.9533,2.1254
3.9538,1.8202
3.9543,-0.3162
3.9548,-3.3681
3.9553,-4.2837
3.9558,-3.9785
3.9563,-3.3681
3.9568,-2.4525
3.9573,-0.0110
3.9578,1.8202
3.9583,1.5150
3.9588,-0.6214
3.9593,-2.1473
3.9598,-1.2318
3.9603,0.2942
3.9608,1.2098
3.9613,1.5150
3.9618,2.1254
3.9623,1.8202
3.9628,1.5150
3.9633,2.1254
3.9638,3.3462
3.9643,2.1254
3.9648,-0.9266
3.9653,-3.0629
3.9658,-2.1473
3.9663,-0.0110
3.9668,0.5994
3.9673,0.9046
3.9678,1.8202
3.9683,1.8202
3.9688,0.5994
3.9693,-0.0110
3.9698,1.5150
3.9703,3.0410
3.9708,0.9046
3.9713,-2.7577
3.9718,-5.1993
3.9723,-5.1993
3.9728,-4.8941
3.9733,-3.6733
3.9738,-0.0110
3.9743,5.1773
3.9748,6.0929
3.9753,1.2098
3.9758,-1.8421
3.9763,0.9046
3.9768,7.6189
3.9773,10.9760
3.9778,8.5345
3.9783,4.2617
3.9788,2.7358
3.9793,3.9565
3.9798,5.7877
3.9803,7.3137
3.9808,8.5345
3.9813,9.4500
3.9818,11.2812
3.9823,13.4176
3.9828,13.4176
3.9833,10.6708
3.9838,7.9241
3.9843,8.2293
3.9848,10.3656
3.9853,9.4500
3.9858,4.8721
3.9863,0.2942
3.9868,-1.2318
3.9873,-2.4525
3.9878,-4.8941
3.9883,-7.6408
3.9888,-8.8616
3.9893,-9.7772
3.9898,-11.6084
3.9903,-14.6603
3.9908,-18.6278
3.9913,-25.6473
3.9918,-34.4979
3.9923,-41.2122
3.9928,-41.8226
3.9933,-38.1603
3.9938,-31.7512
3.9943,-22.5954
3.9948,-11.6084
3.9953,-3.9785
3.9958,-0.9266
3.9963,0.9046
3.9968,5.4825
3.9973,8.8397
3.9978,9.1449
3.9983,11.2812
3.9988,19.5215
3.9993,28.9825
3.9998,30.5085
4.0003,24.0994
4.0008,17.3851
4.0013,14.3332
4.0018,10.9760
4.0023,5.1773
4.0028,-0.9266
4.0033,-5.1993
4.0038,-7.3356
4.0043,-7.0305
4.0048,-3.6733
4.0053,0.5994
4.0058,2.7358
4.0063,3.0410
4.0068,3.6514
4.0073,5.1773
4.0078,5.4825
4.0083,4.8721
4.0088,6.7033
4.0093,11.2812
4.0098,14.3332
4.0103,12.1968
4.0108,7.0085
4.0113,3.6514
4.0118,3.9565
4.0123,5.7877
4.0128,7.3137
4.0133,7.6189
4.0138,7.3137
4.0143,6.0929
4.0148,3.3462
4.0153,-0.9266
4.0158,-4.8941
4.0163,-6.1149
4.0168,-4.8941
4.0173,-4.5889
4.0178,-5.5045
4.0183,-5.5045
4.0188,-3.6733
4.0193,-1.5370
4.0198,-2.7577
4.0203,-5.5045
4.0208,-7.3356
4.0213,-7.0305
4.0218,-5.8097
4.0223,-5.1993
4.0228,-4.5889
4.0233,-3.6733
4.0238,-4.2837
4.0243,-6.1149
4.0248,-7.9460
4.0253,-7.9460
4.0258,-5.8097
4.0263,-3.3681
4.0268,-1.2318
4.0273,0.9046
4.0278,3.9565
4.0283,6.3981
4.0288,7.6189
4.0293,7.3137
4.0298,7.0085
4.0303,5.7877
4.0308,2.7358
4.0313,-2.7577
4.0318,-7.6408
4.0323,-10.3876
4.0328,-10.6928
4.0333,-11.6084
4.0338,-12.5240
4.0343,-12.5240
4.0348,-10.9980
4.0353,-9.7772
4.0358,-9.7772
4.0363,-9.7772
4.0368,-8.5564
4.0373,-7.0305
4.0378,-6.4201
4.0383,-6.4201
4.0388,-5.1993
4.0393,-2.7577
4.0398,-1.2318
4.0403,-1.5370
4.0408,-2.4525
4.0413,-2.4525
4.0418,-2.4525
4.0423,-2.4525
4.0428,-1.5370
4.0433,-0.0110
4.0438,2.1254
4.0443,3.3462
4.0448,4.2617
4.0453,5.4825
4.0458,5.4825
4.0463,2.7358
4.0468,-1.2318
4.0473,-3.6733
4.0478,-3.3681
4.0483,-2.7577
4.0488,-3.0629
4.0493,-2.1473
4.0498,-0.0110
4.0503,1.2098
4.0508,0.2942
4.0513,-0.9266
4.0518,-1.2318
4.0523,-0.6214
4.0528,-0.0110
4.0533,1.5150
4.0538,4.8721
4.0543,7.0085
4.0548,6.3981
4.0553,3.6514
4.0558,2.1254
4.0563,1.5150
4.0568,0.9046
