"type","name","time_units","begin_time","frequency","count","units"
"signal","","s",0.0000,2000.3556,146960,"uV"

"time","value"
0.0000,131.0951
0.0005,130.1795
0.0010,128.6536
0.0015,122.2445
0.0020,115.2250
0.0025,112.7834
0.0030,111.8679
0.0035,108.5107
0.0040,105.1536
0.0045,105.1536
0.0050,106.3744
0.0055,103.3224
0.0060,98.1341
0.0065,94.7770
0.0070,92.6406
0.0075,90.1991
0.0080,89.2835
0.0085,92.9458
0.0090,95.6926
0.0095,93.2510
0.0100,87.4523
0.0105,85.3159
0.0110,86.5367
0.0115,87.7575
0.0120,88.3679
0.0125,89.8939
0.0130,91.1146
0.0135,89.8939
0.0140,87.7575
0.0145,87.4523
0.0150,87.7575
0.0155,86.2315
0.0160,85.9263
0.0165,88.3679
0.0170,89.8939
0.0175,87.4523
0.0180,84.7056
0.0185,84.7056
0.0190,85.0108
0.0195,83.1796
0.0200,81.6536
0.0205,83.7900
0.0210,85.6211
0.0215,82.8744
0.0220,79.5173
0.0225,78.9069
0.0230,78.9069
0.0235,76.1601
0.0240,74.0238
0.0245,76.7705
0.0250,80.4328
0.0255,78.2965
0.0260,70.9718
0.0265,64.2575
0.0270,59.6796
0.0275,55.4069
0.0280,52.3549
0.0285,51.1342
0.0290,48.6926
0.0295,41.6731
0.0300,34.0433
0.0305,29.1602
0.0310,24.5823
0.0315,18.1732
0.0320,12.3745
0.0325,11.4589
0.0330,12.0693
0.0335,7.7966
0.0340,0.1667
0.0345,-5.0216
0.0350,-6.2424
0.0355,-7.7683
0.0360,-9.9047
0.0365,-10.8203
0.0370,-10.8203
0.0375,-12.9567
0.0380,-16.9242
0.0385,-20.2813
0.0390,-22.4177
0.0395,-25.7748
0.0400,-29.7423
0.0405,-32.1839
0.0410,-33.0995
0.0415,-37.0670
0.0420,-45.3073
0.0425,-49.8852
0.0430,-43.7813
0.0435,-32.1839
0.0440,-26.9956
0.0445,-34.6255
0.0450,-47.4436
0.0455,-53.5475
0.0460,-51.4111
0.0465,-50.1904
0.0470,-53.8527
0.0475,-56.5995
0.0480,-53.8527
0.0485,-49.8852
0.0490,-51.7163
0.0495,-57.5150
0.0500,-61.1774
0.0505,-63.3137
0.0510,-66.6709
0.0515,-69.4176
0.0520,-67.2813
0.0525,-63.9241
0.0530,-65.7553
0.0535,-70.9436
0.0540,-73.3851
0.0545,-71.5540
0.0550,-70.9436
0.0555,-73.3851
0.0560,-73.9955
0.0565,-73.3851
0.0570,-75.2163
0.0575,-80.0994
0.0580,-81.9306
0.0585,-80.4046
0.0590,-81.3202
0.0595,-85.5929
0.0600,-86.5085
0.0605,-83.1514
0.0610,-82.2358
0.0615,-87.4241
0.0620,-92.3072
0.0625,-93.2228
0.0630,-94.4436
0.0635,-97.8007
0.0640,-99.0215
0.0645,-95.6643
0.0650,-92.6124
0.0655,-94.4436
0.0660,-98.4111
0.0665,-100.8526
0.0670,-102.3786
0.0675,-103.5994
0.0680,-102.0734
0.0685,-97.8007
0.0690,-95.3591
0.0695,-96.5799
0.0700,-97.1903
0.0705,-95.0539
0.0710,-94.1384
0.0715,-95.0539
0.0720,-93.2228
0.0725,-88.0345
0.0730,-85.5929
0.0735,-88.9501
0.0740,-92.9176
0.0745,-93.5280
0.0750,-93.8332
0.0755,-95.3591
0.0760,-95.0539
0.0765,-90.7812
0.0770,-87.4241
0.0775,-88.6449
0.0780,-90.7812
0.0785,-89.2553
0.0790,-85.5929
0.0795,-81.9306
0.0800,-77.6579
0.0805,-71.5540
0.0810,-66.6709
0.0815,-65.1449
0.0820,-63.9241
0.0825,-59.9566
0.0830,-54.4631
0.0835,-48.3592
0.0840,-40.4242
0.0845,-30.9631
0.0850,-23.3333
0.0855,-18.7553
0.0860,-15.7034
0.0865,-11.1255
0.0870,-5.3268
0.0875,1.9979
0.0880,11.4589
0.0885,20.9199
0.0890,27.9394
0.0895,33.7381
0.0900,40.1472
0.0905,46.2511
0.0910,50.2186
0.0915,53.5757
0.0920,59.0692
0.0925,65.4783
0.0930,68.8354
0.0935,69.1406
0.0940,68.8354
0.0945,68.5303
0.0950,67.0043
0.0955,65.7835
0.0960,65.4783
0.0965,63.6471
0.0970,58.4588
0.0975,52.0498
0.0980,46.8614
0.0985,40.4524
0.0990,31.2965
0.0995,22.1407
0.1000,15.1212
0.1005,7.4914
0.1010,-3.4956
0.1015,-15.7034
0.1020,-26.0800
0.1025,-36.7618
0.1030,-49.5800
0.1035,-62.7033
0.1040,-73.0800
0.1045,-83.1514
0.1050,-95.0539
0.1055,-109.3981
0.1060,-125.2682
0.1065,-143.5799
0.1070,-161.2811
0.1075,-174.0993
0.1080,-186.9175
0.1085,-205.2291
0.1090,-224.7616
0.1095,-233.0018
0.1100,-234.2226
0.1105,-247.3460
0.1110,-278.1706
0.1115,-308.0796
0.1120,-321.8134
0.1125,-329.7484
0.1130,-347.1445
0.1135,-370.3393
0.1140,-385.5990
0.1145,-393.8393
0.1150,-405.1315
0.1155,-419.1704
0.1160,-427.4107
0.1165,-431.9886
0.1170,-440.5340
0.1175,-452.1314
0.1180,-459.1509
0.1185,-461.2872
0.1190,-463.7288
0.1195,-465.5600
0.1200,-460.9820
0.1205,-452.7418
0.1210,-446.9431
0.1215,-442.6704
0.1220,-434.1249
0.1225,-422.2224
0.1230,-411.8457
0.1235,-402.3847
0.1240,-388.6510
0.1245,-371.5601
0.1250,-356.3004
0.1255,-342.5666
0.1260,-325.7809
0.1265,-306.2485
0.1270,-286.7160
0.1275,-265.0472
0.1280,-238.1901
0.1285,-210.7226
0.1290,-187.2227
0.1295,-164.9435
0.1300,-138.6968
0.1305,-109.0929
0.1310,-80.4046
0.1315,-51.4111
0.1320,-18.7553
0.1325,13.5953
0.1330,40.1472
0.1335,63.6471
0.1340,91.7250
0.1345,124.9912
0.1350,157.0366
0.1355,188.4717
0.1360,222.0430
0.1365,255.6144
0.1370,283.3871
0.1375,307.1923
0.1380,334.9650
0.1385,364.8740
0.1390,388.3740
0.1395,404.8545
0.1400,422.5558
0.1405,445.7505
0.1410,468.0297
0.1415,484.5102
0.1420,497.6336
0.1425,510.7569
0.1430,522.0491
0.1435,529.3738
0.1440,536.0881
0.1445,543.4128
0.1450,547.9907
0.1455,545.8543
0.1460,540.0556
0.1465,535.4777
0.1470,532.7309
0.1475,530.5946
0.1480,527.2374
0.1485,521.1336
0.1490,511.0621
0.1495,496.7180
0.1500,481.1531
0.1505,465.2830
0.1510,449.1077
0.1515,432.3220
0.1520,414.3155
0.1525,394.4779
0.1530,371.2831
0.1535,345.9520
0.1540,321.8416
0.1545,298.6468
0.1550,274.8417
0.1555,251.9521
0.1560,230.2833
0.1565,207.3937
0.1570,180.5366
0.1575,151.5431
0.1580,125.6016
0.1585,102.4068
0.1590,79.5173
0.1595,56.9329
0.1600,36.4848
0.1605,16.9524
0.1610,-4.1060
0.1615,-23.6385
0.1620,-37.0670
0.1625,-45.9177
0.1630,-56.2943
0.1635,-67.5865
0.1640,-73.0800
0.1645,-71.5540
0.1650,-69.4176
0.1655,-69.1124
0.1660,-67.5865
0.1665,-62.3981
0.1670,-56.2943
0.1675,-49.2748
0.1680,-37.6774
0.1685,-22.1125
0.1690,-8.0735
0.1695,5.9654
0.1700,30.3810
0.1705,65.4783
0.1710,95.9977
0.1715,111.8679
0.1720,121.0237
0.1725,138.4198
0.1730,164.6665
0.1735,189.3872
0.1740,209.5301
0.1745,232.1145
0.1750,259.5820
0.1755,288.5754
0.1760,316.3481
0.1765,344.1208
0.1770,371.2831
0.1775,394.7831
0.1780,415.8415
0.1785,436.5947
0.1790,456.1272
0.1795,471.3869
0.1800,484.2050
0.1805,497.0232
0.1810,507.7050
0.1815,512.2829
0.1820,511.9777
0.1825,511.6725
0.1830,511.3673
0.1835,507.3998
0.1840,501.9063
0.1845,497.3284
0.1850,492.1401
0.1855,482.3739
0.1860,468.3349
0.1865,454.6012
0.1870,442.0882
0.1875,429.8804
0.1880,417.9778
0.1885,407.9064
0.1890,396.3090
0.1895,380.4389
0.1900,362.4325
0.1905,345.0364
0.1910,327.3351
0.1915,308.4131
0.1920,290.4066
0.1925,273.9261
0.1930,255.9196
0.1935,233.6404
0.1940,210.4457
0.1945,189.6924
0.1950,170.1600
0.1955,149.4068
0.1960,129.8743
0.1965,113.0886
0.1970,95.3874
0.1975,73.4134
0.1980,51.1342
0.1985,31.9069
0.1990,14.2056
0.1995,-4.7164
0.2000,-23.3333
0.2005,-39.2034
0.2010,-55.6839
0.2015,-76.1319
0.2020,-97.8007
0.2025,-115.1968
0.2030,-129.8461
0.2035,-145.1058
0.2040,-160.0604
0.2045,-172.8785
0.2050,-185.0863
0.2055,-200.3460
0.2060,-217.7421
0.2065,-234.2226
0.2070,-249.1771
0.2075,-262.6057
0.2080,-274.2031
0.2085,-283.9693
0.2090,-295.5667
0.2095,-309.3004
0.2100,-321.5082
0.2105,-331.2744
0.2110,-341.3458
0.2115,-352.3328
0.2120,-359.9627
0.2125,-364.2354
0.2130,-370.3393
0.2135,-380.4107
0.2140,-389.8717
0.2145,-395.3652
0.2150,-400.8587
0.2155,-408.1834
0.2160,-412.7613
0.2165,-413.0665
0.2170,-415.2029
0.2175,-422.2224
0.2180,-428.9366
0.2185,-431.0730
0.2190,-431.6834
0.2195,-434.1249
0.2200,-435.6509
0.2205,-434.1249
0.2210,-432.9042
0.2215,-435.0405
0.2220,-436.2613
0.2225,-434.4301
0.2230,-431.6834
0.2235,-430.4626
0.2240,-427.4107
0.2245,-421.9172
0.2250,-417.6444
0.2255,-417.0340
0.2260,-416.7289
0.2265,-414.8977
0.2270,-413.6769
0.2275,-413.3717
0.2280,-410.3198
0.2285,-404.8263
0.2290,-401.7743
0.2295,-401.7743
0.2300,-400.5536
0.2305,-396.5860
0.2310,-394.7549
0.2315,-393.8393
0.2320,-388.9562
0.2325,-381.6315
0.2330,-379.4951
0.2335,-381.0211
0.2340,-378.5796
0.2345,-372.7809
0.2350,-372.1705
0.2355,-374.6120
0.2360,-366.0666
0.2365,-347.1445
0.2370,-335.8523
0.2375,-343.1770
0.2380,-355.3848
0.2385,-355.6900
0.2390,-346.8393
0.2395,-339.5147
0.2400,-334.9368
0.2405,-328.5277
0.2410,-322.1186
0.2415,-319.3718
0.2420,-317.2355
0.2425,-311.7420
0.2430,-305.3329
0.2435,-301.3654
0.2440,-296.4823
0.2445,-288.8524
0.2450,-283.0537
0.2455,-282.4433
0.2460,-282.4433
0.2465,-278.7810
0.2470,-274.2031
0.2475,-270.5407
0.2480,-264.4368
0.2485,-254.6706
0.2490,-246.7356
0.2495,-243.6836
0.2500,-240.9369
0.2505,-234.8330
0.2510,-229.0343
0.2515,-225.3720
0.2520,-219.2681
0.2525,-209.5019
0.2530,-201.5668
0.2535,-198.5149
0.2540,-195.7681
0.2545,-189.0538
0.2550,-181.1188
0.2555,-175.3201
0.2560,-168.3006
0.2565,-158.2292
0.2570,-149.6837
0.2575,-145.7162
0.2580,-142.6643
0.2585,-135.6448
0.2590,-127.4046
0.2595,-120.3851
0.2600,-112.4500
0.2605,-102.3786
0.2610,-94.1384
0.2615,-89.2553
0.2620,-83.1514
0.2625,-73.3851
0.2630,-63.0085
0.2635,-54.4631
0.2640,-44.0865
0.2645,-29.4372
0.2650,-15.0930
0.2655,-5.6320
0.2660,0.4719
0.2665,9.3225
0.2670,20.3095
0.2675,31.2965
0.2680,43.1991
0.2685,56.3225
0.2690,67.6147
0.2695,75.5497
0.2700,82.8744
0.2705,92.9458
0.2710,104.5432
0.2715,115.8354
0.2720,127.4328
0.2725,139.0302
0.2730,148.1860
0.2735,154.9003
0.2740,162.5301
0.2745,171.0756
0.2750,179.9262
0.2755,189.0820
0.2760,200.0690
0.2765,210.1405
0.2770,215.3288
0.2775,217.7703
0.2780,222.0430
0.2785,228.1469
0.2790,231.5041
0.2795,233.6404
0.2800,239.1339
0.2805,247.0690
0.2810,251.6469
0.2814,252.8677
0.2819,255.6144
0.2824,261.4131
0.2829,265.6858
0.2834,267.8222
0.2839,272.7053
0.2844,279.1144
0.2849,280.9456
0.2854,277.8936
0.2859,274.8417
0.2864,274.5365
0.2869,273.3157
0.2874,270.8741
0.2879,270.8741
0.2884,272.4001
0.2889,269.9586
0.2894,263.8547
0.2899,259.8871
0.2904,258.6664
0.2909,255.9196
0.2914,252.5625
0.2919,253.1729
0.2924,255.3092
0.2929,252.8677
0.2934,247.3742
0.2939,245.2378
0.2944,246.7638
0.2949,245.2378
0.2954,243.4066
0.2959,246.7638
0.2964,251.6469
0.2969,248.9001
0.2974,243.1015
0.2979,247.3742
0.2984,260.8027
0.2989,265.9910
0.2994,257.7508
0.2999,248.9001
0.3004,250.4261
0.3009,256.2248
0.3014,257.1404
0.3019,256.2248
0.3024,259.5820
0.3029,264.4651
0.3034,266.2962
0.3039,267.5170
0.3044,270.5690
0.3049,272.0949
0.3054,269.9586
0.3059,265.9910
0.3064,263.2443
0.3069,260.8027
0.3074,257.7508
0.3079,256.5300
0.3084,255.9196
0.3089,251.9521
0.3094,245.2378
0.3099,240.0495
0.3104,237.3028
0.3109,234.2508
0.3114,230.5885
0.3119,229.0625
0.3124,229.3677
0.3129,226.6210
0.3134,221.4327
0.3139,217.1599
0.3144,214.1080
0.3149,210.4457
0.3154,206.1729
0.3159,203.7314
0.3164,200.9846
0.3169,194.2703
0.3174,185.4197
0.3179,178.7054
0.3184,173.8223
0.3189,166.8029
0.3194,158.8678
0.3199,152.7639
0.3204,146.9652
0.3209,137.8094
0.3214,125.2964
0.3219,114.0042
0.3224,104.2380
0.3229,93.2510
0.3234,82.2640
0.3239,73.1082
0.3244,63.9523
0.3249,51.7446
0.3254,36.7900
0.3259,23.0563
0.3264,11.4589
0.3269,0.4719
0.3274,-9.5995
0.3279,-19.0605
0.3284,-29.4372
0.3289,-42.8657
0.3294,-56.5995
0.3299,-68.1968
0.3304,-79.7942
0.3309,-92.6124
0.3314,-103.9046
0.3319,-112.1448
0.3324,-120.3851
0.3329,-131.9825
0.3334,-144.1902
0.3339,-153.9565
0.3344,-161.8915
0.3349,-170.7422
0.3354,-178.0668
0.3359,-182.3396
0.3364,-186.3071
0.3369,-193.9369
0.3374,-202.1772
0.3379,-207.0603
0.3384,-209.1967
0.3389,-212.8590
0.3394,-215.9109
0.3399,-215.6057
0.3404,-214.0798
0.3409,-215.6057
0.3414,-218.9629
0.3419,-220.1837
0.3424,-218.9629
0.3429,-217.1317
0.3434,-214.0798
0.3439,-207.9759
0.3444,-201.2616
0.3449,-197.2941
0.3454,-194.8525
0.3459,-190.2746
0.3464,-182.9499
0.3469,-175.6253
0.3474,-167.3850
0.3479,-156.7032
0.3484,-145.4110
0.3489,-136.2552
0.3494,-128.9305
0.3499,-120.0799
0.3504,-109.0929
0.3509,-97.1903
0.3514,-83.1514
0.3519,-65.7553
0.3524,-48.0540
0.3529,-36.7618
0.3534,-31.5735
0.3539,-26.3852
0.3544,-16.9242
0.3549,-7.1580
0.3554,-0.1385
0.3559,6.5758
0.3564,16.9524
0.3569,27.0238
0.3574,32.8225
0.3579,36.7900
0.3584,43.5043
0.3589,51.7446
0.3594,58.4588
0.3599,65.1731
0.3604,74.9393
0.3609,84.4004
0.3614,88.3679
0.3619,89.2835
0.3624,94.4718
0.3629,103.9328
0.3634,109.1211
0.3639,109.7315
0.3644,117.0562
0.3649,136.2834
0.3654,153.9847
0.3659,154.9003
0.3664,142.9977
0.3669,135.3678
0.3674,140.5561
0.3679,151.5431
0.3684,158.8678
0.3689,162.2249
0.3694,166.1925
0.3699,172.2964
0.3704,177.7899
0.3709,182.0626
0.3714,187.8613
0.3719,196.1015
0.3724,204.6470
0.3729,211.3612
0.3734,216.5495
0.3739,222.3482
0.3744,229.0625
0.3749,235.7768
0.3754,242.4911
0.3759,251.3417
0.3764,261.1079
0.3769,268.7378
0.3774,272.7053
0.3779,276.9780
0.3784,283.0819
0.3789,288.5754
0.3794,293.1533
0.3799,299.5624
0.3804,308.1079
0.3809,314.5169
0.3814,316.9585
0.3819,318.7897
0.3824,323.0624
0.3829,327.0299
0.3834,329.1663
0.3839,332.8286
0.3844,338.9325
0.3849,343.8156
0.3854,344.7312
0.3859,344.1208
0.3864,343.2052
0.3869,341.3741
0.3874,339.2377
0.3879,338.6273
0.3884,338.3221
0.3889,334.0494
0.3894,326.1143
0.3899,318.4845
0.3904,311.1598
0.3909,301.6988
0.3914,291.6274
0.3919,283.9975
0.3924,276.6728
0.3929,265.3806
0.3934,250.4261
0.3939,235.7768
0.3944,220.2119
0.3949,202.5106
0.3954,186.6405
0.3959,174.4327
0.3964,158.8678
0.3969,138.7250
0.3974,121.3289
0.3979,105.7640
0.3984,81.9588
0.3989,67.3095
0.3994,117.6666
0.3999,271.1793
0.4004,491.5297
0.4009,707.3021
0.4014,890.7240
0.4019,1063.1588
0.4024,1234.0677
0.4029,1384.5285
0.4034,1513.3206
0.4039,1642.7230
0.4044,1773.6514
0.4049,1873.7552
0.4054,1934.1837
0.4059,1991.2550
0.4064,2069.9952
0.4069,2145.9886
0.4074,2185.6639
0.4079,2194.8197
0.4084,2202.4496
0.4089,2216.4885
0.4094,2224.1184
0.4099,2217.7093
0.4104,2198.4820
0.4109,2167.0470
0.4114,2124.9302
0.4119,2072.1315
0.4124,1994.3070
0.4129,1876.1967
0.4134,1736.7229
0.4139,1624.7165
0.4144,1558.1842
0.4149,1493.1777
0.4154,1372.6260
0.4159,1189.5093
0.4164,978.0096
0.4169,763.7631
0.4174,544.3283
0.4179,311.4650
0.4184,61.2056
0.4189,-209.1967
0.4194,-496.9950
0.4199,-788.4556
0.4204,-1075.3384
0.4209,-1366.1887
0.4214,-1672.9090
0.4219,-1989.3956
0.4224,-2299.4732
0.4229,-2596.1221
0.4234,-2880.2581
0.4239,-3153.7123
0.4244,-3421.3678
0.4249,-3686.8869
0.4254,-3938.0619
0.4259,-4149.5617
0.4264,-4318.9446
0.4269,-4478.2560
0.4274,-4655.5740
0.4279,-4834.1127
0.4284,-4973.2814
0.4289,-5062.4592
0.4294,-5125.0851
0.4299,-5174.9539
0.4304,-5196.9889
0.4309,-5180.7525
0.4314,-5140.1617
0.4319,-5101.8903
0.4324,-5065.9384
0.4329,-5012.5904
0.4334,-4931.4697
0.4339,-4831.6712
0.4344,-4725.1583
0.4349,-4613.1520
0.4354,-4491.0742
0.4359,-4365.3341
0.4364,-4244.7823
0.4369,-4126.0617
0.4374,-3998.1852
0.4379,-3862.0685
0.4384,-3730.5297
0.4389,-3604.4844
0.4394,-3462.5690
0.4399,-3294.4069
0.4404,-3122.5825
0.4409,-2976.3944
0.4414,-2849.7387
0.4419,-2711.1804
0.4424,-2552.4793
0.4429,-2403.8496
0.4434,-2290.3173
0.4439,-2195.4019
0.4444,-2080.6488
0.4449,-1933.5451
0.4454,-1780.6427
0.4459,-1659.1753
0.4464,-1572.1949
0.4469,-1482.4677
0.4474,-1351.8445
0.4479,-1186.7343
0.4484,-1031.0852
0.4489,-908.7022
0.4494,-790.8972
0.4499,-632.1961
0.4504,-425.8847
0.4509,-208.5863
0.4514,-14.7878
0.4519,149.4068
0.4524,293.1533
0.4529,423.7765
0.4534,551.6530
0.4539,685.3282
0.4544,822.0552
0.4549,951.7629
0.4554,1075.3666
0.4559,1205.6846
0.4564,1349.1260
0.4569,1492.8726
0.4574,1616.1711
0.4579,1708.3398
0.4584,1762.9696
0.4589,1774.8722
0.4594,1744.6579
0.4599,1687.2814
0.4604,1625.9373
0.4609,1576.4958
0.4614,1541.7037
0.4619,1517.5933
0.4624,1502.3336
0.4629,1498.3661
0.4634,1502.3336
0.4639,1501.7232
0.4644,1479.7492
0.4649,1439.1583
0.4654,1410.4701
0.4659,1427.2558
0.4664,1487.0739
0.4669,1545.9764
0.4674,1563.6777
0.4679,1544.7556
0.4684,1526.1387
0.4689,1528.8855
0.4694,1535.9050
0.4699,1525.8335
0.4704,1502.6388
0.4709,1486.7687
0.4714,1488.9050
0.4719,1513.9310
0.4724,1581.0737
0.4729,1716.8852
0.4734,1918.3136
0.4739,2142.6314
0.4744,2346.8065
0.4749,2523.8193
0.4754,2691.3710
0.4759,2856.4812
0.4764,3007.8576
0.4769,3138.4808
0.4774,3255.6755
0.4779,3365.5454
0.4784,3464.4284
0.4789,3547.1361
0.4794,3616.1100
0.4799,3675.0126
0.4804,3722.0125
0.4809,3756.4995
0.4814,3783.9670
0.4819,3808.0773
0.4824,3826.0838
0.4829,3833.7137
0.4834,3835.2396
0.4839,3834.9344
0.4844,3828.8306
0.4849,3811.1293
0.4854,3785.1877
0.4859,3759.5514
0.4864,3733.9151
0.4869,3699.1229
0.4874,3655.1749
0.4879,3609.0906
0.4884,3562.7010
0.4889,3507.4608
0.4894,3442.7596
0.4899,3379.8896
0.4904,3326.1754
0.4909,3271.5456
0.4914,3202.8768
0.4919,3120.1691
0.4924,3034.1043
0.4929,2951.3966
0.4934,2871.7409
0.4939,2791.7800
0.4944,2710.9034
0.4949,2628.1958
0.4954,2544.5725
0.4959,2459.7284
0.4964,2372.1376
0.4969,2280.5793
0.4974,2187.1898
0.4979,2096.5471
0.4984,2008.9563
0.4989,1921.6707
0.4994,1833.1643
0.4999,1744.9631
0.5004,1657.0671
0.5009,1568.5608
0.5014,1481.8856
0.5019,1398.2623
0.5024,1314.0286
0.5029,1224.6067
0.5034,1132.7432
0.5039,1044.2368
0.5044,959.0875
0.5049,874.5487
0.5054,791.2306
0.5059,710.3541
0.5064,629.4776
0.5069,547.0751
0.5074,467.4193
0.5079,394.4779
0.5084,322.7572
0.5089,244.3222
0.5094,161.6145
0.5099,84.0952
0.5104,13.2901
0.5109,-56.2943
0.5114,-127.7098
0.5119,-199.1252
0.5124,-268.7096
0.5129,-338.2939
0.5134,-406.9626
0.5139,-472.2742
0.5144,-535.4495
0.5149,-598.6247
0.5154,-659.9688
0.5159,-717.3453
0.5164,-773.8063
0.5169,-833.9296
0.5174,-893.7477
0.5179,-947.4619
0.5184,-995.6826
0.5189,-1043.2930
0.5194,-1091.8189
0.5199,-1137.9032
0.5204,-1182.4616
0.5209,-1228.8512
0.5214,-1277.3771
0.5219,-1322.2407
0.5224,-1363.1367
0.5229,-1403.7276
0.5234,-1444.9288
0.5239,-1482.7729
0.5244,-1516.3443
0.5249,-1551.1365
0.5254,-1590.5065
0.5259,-1629.8766
0.5264,-1664.0584
0.5269,-1695.1882
0.5274,-1727.2336
0.5279,-1757.4479
0.5284,-1783.0842
0.5289,-1807.1946
0.5294,-1834.9673
0.5299,-1862.7400
0.5304,-1882.8828
0.5309,-1897.8373
0.5314,-1916.7594
0.5319,-1939.3438
0.5324,-1954.2983
0.5329,-1961.0126
0.5334,-1975.9671
0.5339,-2010.1489
0.5344,-2051.3501
0.5349,-2076.9864
0.5354,-2083.0903
0.5359,-2082.4799
0.5364,-2084.3111
0.5369,-2086.4475
0.5374,-2085.5319
0.5379,-2083.0903
0.5384,-2081.2592
0.5389,-2078.5124
0.5394,-2073.3241
0.5399,-2067.2202
0.5404,-2062.6423
0.5409,-2060.5059
0.5414,-2060.5059
0.5419,-2062.0319
0.5424,-2064.1683
0.5429,-2065.3890
0.5434,-2063.8631
0.5439,-2057.1488
0.5444,-2045.5514
0.5449,-2034.8696
0.5454,-2026.6294
0.5459,-2018.3891
0.5464,-2008.3177
0.5469,-1998.2463
0.5474,-1987.5645
0.5479,-1972.6099
0.5484,-1957.3502
0.5489,-1945.4476
0.5494,-1915.2334
0.5499,-1814.8244
0.5504,-1616.1429
0.5509,-1361.3055
0.5514,-1133.6305
0.5519,-979.2021
0.5524,-879.7088
0.5529,-796.3907
0.5534,-717.9557
0.5539,-654.4753
0.5544,-609.9169
0.5549,-575.4299
0.5554,-543.6897
0.5559,-517.4430
0.5564,-504.9300
0.5569,-506.1508
0.5574,-500.6573
0.5579,-465.5600
0.5584,-411.8457
0.5589,-379.8003
0.5594,-388.0406
0.5599,-401.1639
0.5604,-377.9692
0.5609,-335.5471
0.5614,-326.6965
0.5619,-373.0861
0.5624,-455.4885
0.5629,-570.5468
0.5634,-739.3193
0.5639,-955.3970
0.5644,-1169.9487
0.5649,-1350.0134
0.5654,-1510.2404
0.5659,-1671.3831
0.5664,-1815.7400
0.5669,-1920.4217
0.5674,-1998.2463
0.5679,-2081.2592
0.5684,-2172.8175
0.5689,-2253.0836
0.5694,-2314.1225
0.5699,-2366.9211
0.5704,-2416.0574
0.5709,-2456.9535
0.5714,-2488.6937
0.5719,-2514.9404
0.5724,-2532.9469
0.5729,-2537.2196
0.5734,-2530.5053
0.5739,-2520.1287
0.5744,-2506.7002
0.5749,-2485.9469
0.5754,-2457.5639
0.5759,-2425.5184
0.5764,-2391.3367
0.5769,-2352.5770
0.5774,-2307.1030
0.5779,-2255.2200
0.5784,-2198.4538
0.5789,-2138.3305
0.5794,-2071.7981
0.5799,-1997.3307
0.5804,-1922.5581
0.5809,-1857.2465
0.5814,-1797.1232
0.5819,-1725.4025
0.5824,-1641.4740
0.5829,-1565.1754
0.5834,-1501.6950
0.5839,-1421.1237
0.5844,-1309.7277
0.5849,-1223.9681
0.5854,-1253.8771
0.5859,-1423.5652
0.5864,-1652.7662
0.5869,-1825.2010
0.5874,-1872.2010
0.5879,-1792.5452
0.5884,-1624.6883
0.5889,-1414.1042
0.5894,-1197.1110
0.5899,-989.8840
0.5904,-796.3907
0.5909,-615.7156
0.5914,-445.7223
0.5919,-280.0018
0.5924,-117.0279
0.5929,32.8225
0.5934,159.1730
0.5939,267.2118
0.5944,372.1987
0.5949,483.5946
0.5954,602.9257
0.5959,729.5813
0.5964,859.2890
0.5969,981.3667
0.5974,1086.3536
0.5979,1178.2171
0.5984,1264.8923
0.5989,1350.9572
0.5994,1438.8531
0.5999,1530.7167
0.6004,1621.6646
0.6009,1699.7944
0.6014,1762.9696
0.6019,1822.7877
0.6024,1885.3526
0.6029,1945.4759
0.6034,1999.8005
0.6039,2055.9562
0.6044,2114.8588
0.6049,2165.8262
0.6054,2203.9755
0.6059,2238.7677
0.6064,2277.5274
0.6069,2312.9299
0.6074,2339.4818
0.6079,2366.9493
0.6084,2402.3519
0.6089,2437.7544
0.6094,2465.5271
0.6099,2489.6375
0.6104,2515.2738
0.6109,2537.5530
0.6114,2554.6439
0.6119,2575.0919
0.6124,2602.2542
0.6129,2624.5334
0.6134,2636.1308
0.6139,2644.6762
0.6144,2651.6957
0.6149,2645.8970
0.6154,2627.5854
0.6159,2618.4295
0.6164,2627.8906
0.6169,2636.4360
0.6174,2626.3646
0.6179,2610.7997
0.6184,2606.8321
0.6189,2606.2218
0.6194,2591.2672
0.6199,2567.1569
0.6204,2550.9816
0.6209,2537.8582
0.6214,2510.3907
0.6219,2469.4947
0.6224,2432.8713
0.6229,2406.9298
0.6234,2382.8194
0.6239,2355.6571
0.6244,2328.1896
0.6249,2297.3650
0.6254,2255.2482
0.6259,2205.8067
0.6264,2162.1639
0.6269,2129.2029
0.6274,2099.9042
0.6279,2069.6900
0.6284,2039.1705
0.6289,2006.5147
0.6294,1966.8395
0.6299,1921.6707
0.6304,1878.3331
0.6309,1838.9630
0.6314,1800.5085
0.6319,1761.4436
0.6324,1722.6839
0.6329,1683.6191
0.6334,1643.0282
0.6339,1601.5218
0.6344,1559.4049
0.6349,1517.5933
0.6354,1479.7492
0.6359,1451.0609
0.6364,1427.8661
0.6369,1400.7038
0.6374,1365.9117
0.6379,1329.2884
0.6384,1295.4118
0.6389,1263.3664
0.6394,1232.2365
0.6399,1202.6327
0.6404,1168.4509
0.6409,1123.5873
0.6414,1072.3147
0.6419,1027.7563
0.6424,992.3537
0.6429,959.3927
0.6434,925.8213
0.6439,896.5227
0.6444,868.1396
0.6449,830.6007
0.6454,784.2111
0.6459,739.9579
0.6464,702.1138
0.6469,663.0490
0.6474,622.4581
0.6479,586.7504
0.6484,553.7894
0.6489,514.7245
0.6494,471.0817
0.6499,432.6272
0.6504,398.1402
0.6509,358.7701
0.6514,319.0949
0.6519,289.7962
0.6524,265.6858
0.6529,233.9456
0.6534,200.0690
0.6539,176.2639
0.6544,154.9003
0.6549,121.3289
0.6554,88.0627
0.6559,74.3289
0.6564,59.0692
0.6569,16.3420
0.6574,-13.5670
0.6579,50.8290
0.6584,216.8547
0.6589,387.4584
0.6594,472.3025
0.6599,475.0492
0.6604,449.7181
0.6609,426.2181
0.6614,408.2116
0.6619,401.4974
0.6624,400.5818
0.6629,382.5753
0.6634,335.5754
0.6639,267.5170
0.6644,180.8418
0.6649,79.8224
0.6654,6.8810
0.6659,9.3225
0.6664,59.9848
0.6669,77.0757
0.6674,34.9589
0.6679,-12.6515
0.6684,-37.6774
0.6689,-85.2877
0.6694,-185.3915
0.6699,-292.2095
0.6704,-362.0991
0.6709,-417.6444
0.6714,-482.6508
0.6719,-529.0404
0.6724,-542.4690
0.6729,-577.2611
0.6734,-676.1441
0.6739,-794.2543
0.6744,-871.1633
0.6749,-922.7412
0.6754,-997.2086
0.6759,-1082.9682
0.6764,-1144.6175
0.6769,-1200.7733
0.6774,-1291.1108
0.6779,-1386.3315
0.6784,-1426.0068
0.6789,-1429.6691
0.6794,-1477.8898
0.6799,-1586.8442
0.6804,-1676.5714
0.6809,-1690.3051
0.6814,-1669.8571
0.6819,-1681.1493
0.6824,-1719.9090
0.6829,-1743.1038
0.6834,-1757.7531
0.6839,-1826.1166
0.6844,-1974.4411
0.6849,-2136.4993
0.6854,-2211.2720
0.6859,-2169.7655
0.6864,-2079.1228
0.6869,-2021.4411
0.6874,-2002.2138
0.6879,-1961.3178
0.6884,-1868.8438
0.6889,-1771.4868
0.6894,-1735.1687
0.6899,-1763.2466
0.6904,-1801.3959
0.6909,-1806.5842
0.6914,-1789.4933
0.6919,-1781.8634
0.6924,-1791.0193
0.6929,-1795.5972
0.6934,-1773.6232
0.6939,-1723.5713
0.6944,-1664.3636
0.6949,-1624.0779
0.6954,-1619.5000
0.6959,-1640.5584
0.6964,-1656.4285
0.6969,-1646.6623
0.6974,-1620.7208
0.6979,-1602.4091
0.6984,-1598.1364
0.6989,-1592.9481
0.6994,-1574.9416
0.6999,-1548.0845
0.7004,-1520.3118
0.7009,-1488.8768
0.7014,-1447.6756
0.7019,-1403.4224
0.7024,-1371.6822
0.7029,-1360.0848
0.7034,-1361.3055
0.7039,-1356.1172
0.7044,-1330.1757
0.7049,-1283.7862
0.7054,-1227.9356
0.7059,-1170.8642
0.7064,-1113.1825
0.7069,-1056.7215
0.7074,-1011.5528
0.7079,-980.1177
0.7084,-948.3775
0.7089,-905.3451
0.7094,-862.6179
0.7099,-839.7283
0.7104,-834.8452
0.7109,-826.6049
0.7114,-801.8842
0.7119,-766.1765
0.7124,-731.0791
0.7129,-699.0337
0.7134,-669.1246
0.7139,-642.5727
0.7144,-623.0403
0.7149,-615.4104
0.7154,-619.0727
0.7159,-623.0403
0.7164,-612.0533
0.7169,-587.0273
0.7174,-562.3066
0.7179,-544.9105
0.7184,-529.9560
0.7189,-515.9170
0.7194,-509.8131
0.7199,-510.7287
0.7204,-509.5080
0.7209,-511.0339
0.7214,-526.5988
0.7219,-543.3845
0.7224,-533.0079
0.7229,-496.9950
0.7234,-468.3067
0.7239,-460.0665
0.7244,-448.7743
0.7249,-418.8652
0.7254,-381.9367
0.7259,-341.6510
0.7264,-276.6446
0.7269,-187.8330
0.7274,-110.9241
0.7279,-62.0930
0.7284,-12.3463
0.7289,49.9134
0.7294,87.4523
0.7299,83.7900
0.7304,96.3029
0.7309,179.3158
0.7314,292.2378
0.7319,352.3611
0.7324,350.2247
0.7329,346.8676
0.7334,376.7766
0.7339,410.9584
0.7344,427.7441
0.7349,452.1596
0.7354,512.5881
0.7359,600.4841
0.7364,691.7372
0.7369,778.1073
0.7374,861.7305
0.7379,939.5551
0.7384,1008.2238
0.7389,1071.3991
0.7394,1132.1328
0.7399,1189.5093
0.7404,1240.4768
0.7409,1284.7300
0.7414,1321.6585
0.7419,1352.4831
0.7424,1382.6974
0.7429,1413.8272
0.7434,1440.6843
0.7439,1461.1323
0.7444,1479.7492
0.7449,1497.1453
0.7454,1505.3855
0.7459,1504.1647
0.7464,1505.6907
0.7469,1519.4245
0.7474,1534.0738
0.7479,1531.9374
0.7484,1513.3206
0.7489,1493.1777
0.7494,1479.7492
0.7499,1468.1518
0.7504,1451.9765
0.7509,1433.9700
0.7514,1418.0999
0.7519,1403.1454
0.7524,1385.1389
0.7529,1361.6390
0.7534,1333.2559
0.7539,1302.7364
0.7544,1272.8274
0.7549,1243.8339
0.7554,1215.4508
0.7559,1187.6781
0.7564,1159.2951
0.7569,1128.1652
0.7574,1093.9835
0.7579,1058.5809
0.7584,1024.0939
0.7589,988.3862
0.7594,950.5421
0.7599,913.6136
0.7604,880.9578
0.7609,849.5227
0.7614,814.4254
0.7619,776.2761
0.7624,738.4320
0.7629,702.4190
0.7634,666.7113
0.7639,631.6139
0.7644,596.5166
0.7649,559.8932
0.7654,522.3543
0.7659,485.7310
0.7664,449.4129
0.7669,412.1792
0.7674,375.5558
0.7679,343.8156
0.7684,316.0429
0.7689,286.7443
0.7694,253.7833
0.7699,220.5171
0.7704,189.3872
0.7709,158.5626
0.7714,128.9587
0.7719,103.3224
0.7724,81.0432
0.7729,56.3225
0.7734,29.1602
0.7739,5.0498
0.7744,-14.4826
0.7749,-35.5410
0.7754,-59.0410
0.7759,-79.7942
0.7764,-96.8851
0.7769,-115.5020
0.7774,-138.0864
0.7779,-160.0604
0.7784,-178.6772
0.7789,-198.2097
0.7794,-220.1837
0.7799,-240.3265
0.7804,-256.8070
0.7809,-274.2031
0.7814,-294.9563
0.7819,-314.4887
0.7824,-330.6640
0.7829,-348.0601
0.7834,-366.3718
0.7839,-381.0211
0.7844,-390.4821
0.7849,-400.5536
0.7854,-414.2873
0.7859,-427.1055
0.7864,-435.0405
0.7869,-441.7548
0.7874,-449.0795
0.7879,-453.6574
0.7884,-455.1834
0.7889,-459.7613
0.7894,-468.6119
0.7899,-475.0210
0.7904,-475.3262
0.7909,-473.8002
0.7914,-474.1054
0.7919,-472.2742
0.7924,-467.0859
0.7929,-463.4236
0.7934,-465.2548
0.7939,-467.3911
0.7944,-465.5600
0.7949,-461.8976
0.7954,-459.1509
0.7959,-455.1834
0.7964,-448.7743
0.7969,-444.5015
0.7974,-445.7223
0.7979,-448.1639
0.7984,-446.9431
0.7989,-444.1964
0.7994,-442.3652
0.7999,-438.7029
0.8004,-431.3782
0.8009,-425.5795
0.8014,-425.2743
0.8019,-426.8003
0.8024,-424.3587
0.8029,-420.0860
0.8034,-417.0340
0.8039,-412.4561
0.8044,-403.3003
0.8049,-394.1445
0.8054,-390.7873
0.8059,-389.8717
0.8064,-384.3782
0.8069,-375.5276
0.8074,-369.4237
0.8079,-365.1510
0.8084,-357.5211
0.8089,-348.9757
0.8094,-346.8393
0.8099,-349.2809
0.8104,-345.0082
0.8109,-330.3588
0.8114,-316.0147
0.8119,-313.8783
0.8124,-321.5082
0.8129,-326.3913
0.8134,-323.3394
0.8139,-316.6251
0.8144,-312.0472
0.8149,-308.3848
0.8154,-301.6706
0.8159,-291.9043
0.8164,-282.1381
0.8169,-275.1187
0.8174,-268.7096
0.8179,-260.4693
0.8184,-250.7031
0.8189,-241.2421
0.8194,-231.1707
0.8199,-219.5733
0.8204,-207.3655
0.8209,-197.5993
0.8214,-188.7486
0.8219,-178.6772
0.8224,-166.4694
0.8229,-155.1772
0.8234,-143.8851
0.8239,-130.7617
0.8244,-116.1124
0.8249,-103.5994
0.8254,-95.0539
0.8259,-88.0345
0.8264,-79.7942
0.8269,-69.7228
0.8274,-57.2098
0.8279,-42.8657
0.8284,-29.7423
0.8289,-20.2813
0.8294,-13.2618
0.8299,-5.0216
0.8304,3.2186
0.8309,9.9329
0.8314,16.3420
0.8319,25.1926
0.8324,35.2641
0.8329,42.8939
0.8334,48.6926
0.8339,55.7121
0.8344,62.7316
0.8349,67.3095
0.8354,70.9718
0.8359,77.0757
0.8364,83.1796
0.8369,85.6211
0.8374,85.3159
0.8379,87.4523
0.8384,91.4198
0.8389,93.5562
0.8394,95.3874
0.8399,100.2705
0.8404,107.2899
0.8409,112.1731
0.8414,114.9198
0.8419,119.4977
0.8424,125.9068
0.8429,129.8743
0.8434,132.6211
0.8438,137.5042
0.8443,144.5237
0.8448,149.1016
0.8453,150.6275
0.8458,152.7639
0.8463,155.2055
0.8468,156.1210
0.8473,156.7314
0.8478,161.3094
0.8483,168.3288
0.8488,173.2119
0.8493,177.1795
0.8498,182.9782
0.8503,189.9976
0.8508,194.8807
0.8513,199.1535
0.8518,207.6989
0.8523,217.7703
0.8528,224.1794
0.8533,226.3158
0.8538,229.6729
0.8543,234.5560
0.8548,237.3028
0.8553,237.9131
0.8558,240.0495
0.8563,243.4066
0.8568,243.1015
0.8573,239.4391
0.8578,236.6924
0.8583,235.1664
0.8588,231.8093
0.8593,227.5365
0.8598,225.4002
0.8603,224.1794
0.8608,218.0755
0.8613,208.6145
0.8618,200.9846
0.8623,195.7963
0.8628,189.3872
0.8633,181.7574
0.8638,177.4847
0.8643,175.9587
0.8648,171.6860
0.8653,163.4457
0.8658,156.4262
0.8663,153.3743
0.8668,151.2379
0.8673,149.4068
0.8678,150.0172
0.8683,151.5431
0.8688,150.6275
0.8693,148.4912
0.8698,149.1016
0.8703,151.8483
0.8708,152.4587
0.8713,151.8483
0.8718,156.7314
0.8723,164.9717
0.8728,167.7184
0.8733,163.7509
0.8738,164.9717
0.8743,179.3158
0.8748,196.1015
0.8753,200.9846
0.8758,193.6600
0.8763,186.0301
0.8768,184.8093
0.8773,186.3353
0.8778,185.1145
0.8783,181.4522
0.8788,179.0106
0.8793,179.3158
0.8798,180.2314
0.8803,179.0106
0.8808,175.6535
0.8813,172.6015
0.8818,170.7704
0.8823,168.6340
0.8828,164.0561
0.8833,159.4782
0.8838,157.3418
0.8843,155.8159
0.8848,150.6275
0.8853,142.0821
0.8858,133.5367
0.8863,127.1276
0.8868,121.3289
0.8873,117.0562
0.8878,114.3094
0.8883,110.6471
0.8888,103.0172
0.8893,93.5562
0.8898,85.6211
0.8903,77.9913
0.8908,69.1406
0.8913,60.2900
0.8918,54.4913
0.8923,48.0822
0.8928,37.4004
0.8933,24.5823
0.8938,15.1212
0.8943,7.7966
0.8948,-1.3593
0.8953,-9.9047
0.8958,-13.5670
0.8963,-16.6190
0.8968,-26.0800
0.8973,-36.7618
0.8978,-38.2878
0.8983,-32.4891
0.8988,-32.4891
0.8993,-41.0345
0.8998,-47.4436
0.9003,-45.9177
0.9008,-45.3073
0.9013,-52.0215
0.9018,-59.6514
0.9023,-61.7878
0.9028,-62.7033
0.9033,-67.8916
0.9038,-72.1644
0.9043,-70.6384
0.9048,-67.5865
0.9053,-70.0280
0.9058,-75.5215
0.9063,-78.5735
0.9068,-78.5735
0.9073,-77.9631
0.9078,-75.2163
0.9083,-69.4176
0.9088,-66.0605
0.9093,-68.1968
0.9098,-71.8592
0.9103,-72.4696
0.9108,-72.1644
0.9113,-73.9955
0.9118,-75.8267
0.9123,-75.5215
0.9128,-75.8267
0.9133,-80.7098
0.9138,-87.1189
0.9143,-90.7812
0.9148,-93.8332
0.9153,-98.4111
0.9158,-103.2942
0.9163,-106.9565
0.9168,-111.8396
0.9173,-120.9955
0.9178,-130.1513
0.9183,-136.5604
0.9188,-142.9695
0.9193,-152.1253
0.9198,-160.0604
0.9203,-163.1123
0.9208,-165.5539
0.9213,-173.1837
0.9218,-183.2551
0.9223,-190.2746
0.9228,-194.8525
0.9233,-199.4304
0.9238,-202.4824
0.9243,-201.5668
0.9248,-200.0408
0.9253,-202.4824
0.9258,-208.2811
0.9263,-212.8590
0.9268,-215.6057
0.9273,-217.4369
0.9278,-216.8265
0.9283,-211.9434
0.9288,-207.3655
0.9293,-206.7551
0.9298,-207.6707
0.9303,-205.8395
0.9308,-204.0084
0.9313,-204.3135
0.9318,-202.4824
0.9323,-195.4629
0.9328,-187.8330
0.9333,-186.0019
0.9338,-186.0019
0.9343,-182.6447
0.9348,-177.4564
0.9353,-176.5409
0.9358,-175.9305
0.9363,-169.8266
0.9368,-161.5863
0.9373,-159.4500
0.9378,-160.3656
0.9383,-155.4824
0.9388,-146.0214
0.9393,-142.3591
0.9398,-143.2747
0.9403,-135.3396
0.9408,-116.7228
0.9413,-103.9046
0.9418,-109.0929
0.9423,-123.4370
0.9428,-130.1513
0.9433,-126.1838
0.9438,-120.3851
0.9443,-117.3331
0.9448,-115.1968
0.9453,-113.0604
0.9458,-113.0604
0.9463,-114.5864
0.9468,-115.1968
0.9473,-111.5344
0.9478,-105.4306
0.9483,-100.8526
0.9488,-98.4111
0.9493,-96.5799
0.9498,-93.2228
0.9503,-89.2553
0.9508,-86.8137
0.9513,-85.2877
0.9518,-80.7098
0.9523,-73.9955
0.9528,-69.7228
0.9533,-69.7228
0.9538,-69.4176
0.9543,-65.7553
0.9548,-62.0930
0.9553,-60.5670
0.9558,-57.8202
0.9563,-51.4111
0.9568,-45.6125
0.9573,-44.3917
0.9578,-44.3917
0.9583,-40.7293
0.9588,-35.8462
0.9593,-32.4891
0.9598,-29.7423
0.9603,-25.7748
0.9608,-22.4177
0.9613,-21.5021
0.9618,-20.5865
0.9623,-16.6190
0.9628,-12.9567
0.9633,-11.4307
0.9638,-8.9891
0.9643,-1.6645
0.9648,5.9654
0.9653,8.7121
0.9658,8.1018
0.9663,8.7121
0.9668,11.4589
0.9673,14.8160
0.9678,19.0888
0.9683,24.2771
0.9688,27.6342
0.9693,28.5498
0.9698,30.0758
0.9703,34.3485
0.9708,38.6212
0.9713,41.3680
0.9718,45.6407
0.9723,51.4394
0.9728,55.7121
0.9733,57.2381
0.9738,59.3744
0.9743,63.9523
0.9748,67.0043
0.9753,68.5303
0.9758,72.1926
0.9763,78.2965
0.9768,81.6536
0.9773,80.1276
0.9778,78.2965
0.9783,79.8224
0.9788,82.2640
0.9793,82.5692
0.9798,83.7900
0.9803,87.7575
0.9808,90.8094
0.9813,90.1991
0.9818,89.2835
0.9823,92.0302
0.9828,95.9977
0.9833,99.0497
0.9838,102.4068
0.9843,107.9003
0.9848,112.4782
0.9853,113.6990
0.9858,114.0042
0.9863,115.2250
0.9868,117.6666
0.9873,121.3289
0.9878,126.8224
0.9883,133.5367
0.9888,136.8938
0.9893,137.8094
0.9898,140.5561
0.9903,146.0496
0.9908,150.3224
0.9913,152.7639
0.9918,157.0366
0.9923,163.7509
0.9928,168.3288
0.9933,168.6340
0.9938,169.5496
0.9943,174.1275
0.9948,178.4002
0.9953,179.6210
0.9958,180.8418
0.9963,184.5041
0.9968,187.2509
0.9973,186.3353
0.9978,185.7249
0.9983,189.0820
0.9988,193.3548
0.9993,194.8807
0.9998,196.4067
1.0003,200.6794
1.0008,204.3418
1.0013,201.5950
1.0018,197.6275
1.0023,200.9846
1.0028,212.5820
1.0033,221.4327
1.0038,219.2963
1.0043,211.0560
1.0048,204.9522
1.0053,203.1210
1.0058,201.5950
1.0063,197.9327
1.0068,193.9652
1.0073,193.0496
1.0078,193.6600
1.0083,192.4392
1.0088,188.7768
1.0093,184.5041
1.0098,180.5366
1.0103,174.7379
1.0108,167.4132
1.0113,162.8353
1.0118,162.8353
1.0123,163.4457
1.0128,158.8678
1.0133,150.6275
1.0138,144.5237
1.0143,141.1665
1.0148,138.1146
1.0153,135.9782
1.0158,136.8938
1.0163,139.0302
1.0168,136.5886
1.0173,129.8743
1.0178,124.3808
1.0183,122.5497
1.0188,119.8029
1.0193,115.5302
1.0198,113.0886
1.0203,112.4782
1.0208,108.5107
1.0213,99.9653
1.0218,91.7250
1.0223,86.2315
1.0228,80.7380
1.0233,74.3289
1.0238,69.7510
1.0243,67.0043
1.0248,61.5108
1.0253,50.8290
1.0258,38.3160
1.0263,27.6342
1.0268,17.8680
1.0273,8.7121
1.0278,2.3031
1.0283,-2.5800
1.0288,-10.8203
1.0293,-22.4177
1.0298,-32.1839
1.0303,-38.2878
1.0308,-43.1709
1.0313,-48.3592
1.0318,-52.0215
1.0323,-54.7683
1.0328,-59.0410
1.0333,-64.5345
1.0338,-67.8916
1.0343,-69.1124
1.0348,-70.9436
1.0353,-73.0800
1.0358,-72.4696
1.0363,-70.6384
1.0368,-70.9436
1.0373,-73.3851
1.0378,-73.0800
1.0383,-69.7228
1.0388,-65.7553
1.0393,-59.9566
1.0398,-49.8852
1.0403,-38.5930
1.0408,-31.8787
1.0413,-29.1320
1.0418,-23.9437
1.0423,-15.3982
1.0428,-7.7683
1.0433,-1.0541
1.0438,6.8810
1.0443,16.3420
1.0448,22.1407
1.0453,23.9719
1.0458,25.4978
1.0463,27.9394
1.0468,29.7706
1.0473,30.6861
1.0478,34.0433
1.0483,36.7900
1.0488,35.8745
1.0493,31.9069
1.0498,29.7706
1.0503,29.1602
1.0508,26.7186
1.0513,23.0563
1.0518,22.7511
1.0523,23.0563
1.0528,19.0888
1.0533,11.7641
1.0538,6.5758
1.0543,4.1342
1.0548,0.1667
1.0553,-5.3268
1.0558,-8.0735
1.0563,-10.2099
1.0568,-17.2294
1.0573,-26.9956
1.0578,-32.7943
1.0583,-34.6255
1.0588,-37.9826
1.0593,-43.1709
1.0598,-44.6969
1.0603,-44.3917
1.0608,-49.8852
1.0613,-61.7878
1.0618,-69.7228
1.0623,-70.6384
1.0628,-73.3851
1.0633,-81.0150
1.0638,-84.9825
1.0643,-81.6254
1.0648,-80.7098
1.0653,-89.2553
1.0658,-96.5799
1.0663,-91.3916
1.0668,-80.7098
1.0673,-82.8462
1.0678,-99.0215
1.0683,-114.8916
1.0688,-120.0799
1.0693,-120.3851
1.0698,-123.7422
1.0703,-129.8461
1.0708,-133.5084
1.0713,-133.8136
1.0718,-134.4240
1.0723,-138.0864
1.0728,-145.1058
1.0733,-152.4305
1.0738,-157.6188
1.0743,-161.2811
1.0748,-164.6383
1.0753,-167.9954
1.0758,-169.2162
1.0763,-171.0474
1.0768,-177.4564
1.0773,-187.2227
1.0778,-194.2421
1.0783,-196.3785
1.0788,-198.5149
1.0793,-204.0084
1.0798,-208.8915
1.0803,-209.8070
1.0808,-209.8070
1.0813,-213.4694
1.0818,-218.9629
1.0823,-222.9304
1.0828,-226.5927
1.0833,-232.0862
1.0838,-236.6642
1.0843,-237.2745
1.0848,-237.2745
1.0853,-240.9369
1.0858,-246.7356
1.0863,-250.7031
1.0868,-252.2291
1.0873,-252.8395
1.0878,-252.5343
1.0883,-250.0927
1.0888,-247.3460
1.0893,-246.1252
1.0898,-244.9044
1.0903,-242.1577
1.0908,-240.0213
1.0913,-238.4953
1.0918,-235.7486
1.0923,-229.9499
1.0928,-225.0668
1.0933,-223.2356
1.0938,-222.0148
1.0943,-218.3525
1.0948,-214.0798
1.0953,-210.4174
1.0958,-205.8395
1.0963,-197.9045
1.0968,-191.1902
1.0973,-188.1382
1.0978,-185.6967
1.0983,-179.5928
1.0988,-171.3526
1.0993,-165.2487
1.0998,-159.4500
1.1003,-151.2097
1.1008,-142.9695
1.1013,-138.0864
1.1018,-135.0344
1.1023,-129.5409
1.1028,-122.2163
1.1033,-116.1124
1.1038,-110.3137
1.1043,-101.1578
1.1048,-90.7812
1.1053,-84.0670
1.1058,-81.3202
1.1063,-78.5735
1.1068,-74.6059
1.1073,-70.0280
1.1078,-64.5345
1.1083,-57.8202
1.1088,-51.7163
1.1093,-48.0540
1.1098,-45.9177
1.1103,-42.5605
1.1108,-38.2878
1.1113,-34.6255
1.1118,-30.0475
1.1123,-24.2488
1.1128,-19.3657
1.1133,-17.2294
1.1138,-14.7878
1.1143,-10.5151
1.1148,-6.2424
1.1153,-2.8852
1.1158,1.6927
1.1163,9.3225
1.1168,15.4264
1.1173,17.8680
1.1178,19.6991
1.1183,24.2771
1.1188,28.8550
1.1193,31.9069
1.1198,35.8745
1.1203,43.1991
1.1208,50.2186
1.1213,52.6601
1.1218,52.9653
1.1223,55.7121
1.1228,59.3744
1.1233,60.9004
1.1238,62.7316
1.1243,68.2251
1.1248,74.3289
1.1253,76.4653
1.1258,74.9393
1.1263,74.0238
1.1268,74.6341
1.1273,75.8549
1.1278,77.6861
1.1283,80.4328
1.1288,82.2640
1.1293,81.0432
1.1298,78.2965
1.1303,77.6861
1.1308,78.9069
1.1313,79.5173
1.1318,80.4328
1.1323,83.4848
1.1328,86.5367
1.1333,85.9263
1.1338,82.8744
1.1343,81.9588
1.1348,84.0952
1.1353,86.5367
1.1358,87.7575
1.1363,90.8094
1.1368,96.6081
1.1373,101.1861
1.1378,101.4912
1.1383,100.8809
1.1388,108.2055
1.1393,126.5172
1.1398,146.6600
1.1403,156.4262
1.1408,156.7314
1.1413,159.1730
1.1418,171.0756
1.1423,186.3353
1.1428,197.3223
1.1433,206.4781
1.1438,221.4327
1.1443,241.2703
1.1448,258.6664
1.1453,271.4845
1.1458,281.5559
1.1463,291.0170
1.1468,297.1209
1.1473,302.3092
1.1478,309.9390
1.1483,320.0104
1.1488,325.8091
1.1493,325.8091
1.1498,323.9780
1.1503,322.7572
1.1508,319.4001
1.1513,313.9066
1.1518,309.9390
1.1523,307.8027
1.1528,302.6144
1.1533,292.5429
1.1538,281.2508
1.1543,271.4845
1.1548,261.1079
1.1553,248.2898
1.1558,235.4716
1.1563,223.8742
1.1568,208.9197
1.1573,189.3872
1.1578,168.6340
1.1583,150.0172
1.1588,132.3159
1.1593,114.0042
1.1598,96.9133
1.1603,81.6536
1.1608,65.1731
1.1613,45.0303
1.1618,24.5823
1.1623,5.9654
1.1628,-11.1255
1.1633,-27.9112
1.1638,-42.2553
1.1643,-54.4631
1.1648,-68.5020
1.1653,-84.9825
1.1658,-101.4630
1.1663,-117.3331
1.1668,-133.2033
1.1673,-148.7682
1.1678,-160.6707
1.1683,-169.8266
1.1688,-179.5928
1.1693,-189.9694
1.1698,-198.2097
1.1703,-204.6187
1.1708,-211.6382
1.1713,-217.4369
1.1718,-218.6577
1.1723,-217.4369
1.1728,-218.3525
1.1733,-220.7940
1.1738,-220.7940
1.1743,-218.3525
1.1748,-218.3525
1.1753,-218.9629
1.1758,-214.6902
1.1763,-205.8395
1.1768,-198.2097
1.1773,-194.5473
1.1778,-189.6642
1.1783,-181.4240
1.1788,-173.4889
1.1793,-167.0798
1.1798,-158.5344
1.1803,-146.6318
1.1808,-136.2552
1.1813,-128.6253
1.1818,-119.1643
1.1823,-106.0409
1.1828,-92.0020
1.1833,-78.8786
1.1838,-62.3981
1.1843,-42.2553
1.1848,-24.2488
1.1853,-12.6515
1.1858,-3.1904
1.1863,7.4914
1.1868,19.0888
1.1873,29.1602
1.1878,40.1472
1.1883,52.9653
1.1888,63.0368
1.1893,67.9199
1.1898,71.5822
1.1903,77.3809
1.1908,82.8744
1.1913,85.6211
1.1918,89.5887
1.1923,97.2185
1.1928,102.4068
1.1933,99.9653
1.1938,95.3874
1.1943,100.2705
1.1948,112.7834
1.1953,119.8029
1.1958,113.0886
1.1963,99.3549
1.1968,89.5887
1.1973,86.2315
1.1978,82.8744
1.1983,76.1601
1.1988,69.4458
1.1993,65.7835
1.1998,63.6471
1.2003,58.7640
1.2008,50.5238
1.2013,42.5887
1.2018,37.4004
1.2023,32.8225
1.2028,26.7186
1.2033,20.9199
1.2038,18.1732
1.2043,17.8680
1.2048,15.1212
1.2053,9.0173
1.2058,2.3031
1.2063,-3.4956
1.2068,-9.2943
1.2073,-14.1774
1.2078,-16.3138
1.2083,-18.4502
1.2088,-23.3333
1.2093,-30.0475
1.2098,-33.4047
1.2103,-33.4047
1.2108,-33.4047
1.2113,-33.7099
1.2118,-30.6579
1.2123,-25.4696
1.2128,-22.7229
1.2133,-23.6385
1.2138,-24.2488
1.2143,-21.5021
1.2148,-18.1450
1.2153,-14.7878
1.2158,-9.2943
1.2163,-1.6645
1.2168,3.5238
1.2173,7.1862
1.2178,10.8485
1.2183,15.1212
1.2188,17.2576
1.2193,18.4784
1.2198,20.9199
1.2203,23.0563
1.2208,22.1407
1.2213,20.6147
1.2218,23.3615
1.2223,29.4654
1.2228,33.7381
1.2233,37.7056
1.2238,44.4199
1.2243,52.3549
1.2248,55.1017
1.2253,53.5757
1.2258,52.9653
1.2263,54.1861
1.2268,54.1861
1.2273,55.1017
1.2278,60.9004
1.2283,67.9199
1.2288,70.0562
1.2293,68.5303
1.2298,70.0562
1.2303,74.0238
1.2308,74.9393
1.2313,75.2445
1.2318,80.1276
1.2323,85.9263
1.2328,84.0952
1.2333,78.2965
1.2338,78.9069
1.2343,84.7056
1.2348,82.5692
1.2353,71.8874
1.2358,67.9199
1.2363,76.7705
1.2368,87.4523
1.2373,88.0627
1.2378,83.1796
1.2383,81.3484
1.2388,81.6536
1.2393,81.0432
1.2398,79.2121
1.2403,77.6861
1.2408,73.4134
1.2413,67.0043
1.2418,63.0368
1.2423,62.1212
1.2428,60.2900
1.2433,56.3225
1.2438,54.1861
1.2443,53.8809
1.2448,50.2186
1.2453,41.3680
1.2458,32.8225
1.2463,27.9394
1.2468,23.9719
1.2473,19.0888
1.2478,15.7316
1.2483,13.2901
1.2488,7.7966
1.2493,0.1667
1.2498,-4.1060
1.2503,-6.5476
1.2508,-10.2099
1.2513,-14.7878
1.2518,-16.0086
1.2523,-16.0086
1.2528,-21.5021
1.2533,-29.7423
1.2538,-34.0151
1.2543,-34.9307
1.2548,-38.2878
1.2553,-42.2553
1.2558,-40.4242
1.2563,-37.9826
1.2568,-44.6969
1.2573,-55.9891
1.2578,-55.6839
1.2583,-42.2553
1.2588,-34.6255
1.2593,-43.4761
1.2598,-57.5150
1.2603,-63.3137
1.2608,-63.6189
1.2613,-67.5865
1.2618,-73.0800
1.2623,-75.8267
1.2628,-76.7423
1.2633,-78.5735
1.2638,-77.9631
1.2643,-74.3007
1.2648,-75.2163
1.2653,-82.8462
1.2658,-89.2553
1.2663,-89.2553
1.2668,-87.7293
1.2673,-89.5605
1.2678,-91.0864
1.2683,-87.4241
1.2688,-82.8462
1.2693,-81.9306
1.2698,-81.6254
1.2703,-78.8786
1.2708,-76.7423
1.2713,-77.3527
1.2718,-75.5215
1.2723,-67.8916
1.2728,-60.5670
1.2733,-59.6514
1.2738,-61.1774
1.2743,-59.0410
1.2748,-54.7683
1.2753,-52.6319
1.2758,-49.8852
1.2763,-44.0865
1.2768,-38.5930
1.2773,-37.6774
1.2778,-37.3722
1.2783,-32.1839
1.2788,-25.7748
1.2793,-23.3333
1.2798,-22.1125
1.2803,-17.5346
1.2808,-12.0411
1.2813,-12.0411
1.2818,-15.7034
1.2823,-16.3138
1.2828,-12.9567
1.2833,-9.5995
1.2838,-7.1580
1.2843,-2.8852
1.2848,1.9979
1.2853,4.1342
1.2858,3.2186
1.2863,2.6083
1.2868,3.5238
1.2873,4.4394
1.2878,6.5758
1.2883,10.2381
1.2888,12.6797
1.2893,12.3745
1.2898,10.5433
1.2903,10.5433
1.2908,11.7641
1.2913,12.9849
1.2918,15.1212
1.2923,18.1732
1.2928,20.0043
1.2933,19.3940
1.2938,19.0888
1.2943,20.9199
1.2948,22.7511
1.2953,22.7511
1.2958,23.9719
1.2963,28.5498
1.2968,31.9069
1.2973,30.6861
1.2978,27.3290
1.2983,26.1082
1.2988,26.1082
1.2993,25.4978
1.2998,26.1082
1.3003,29.1602
1.3008,31.2965
1.3013,30.3810
1.3018,29.1602
1.3023,30.3810
1.3028,32.8225
1.3033,34.0433
1.3038,35.8745
1.3043,41.6731
1.3048,48.0822
1.3053,51.4394
1.3058,51.4394
1.3063,51.7446
1.3068,51.7446
1.3073,52.0498
1.3078,54.4913
1.3083,58.1536
1.3088,59.0692
1.3093,56.3225
1.3098,53.5757
1.3103,52.3549
1.3108,50.2186
1.3113,46.8614
1.3118,46.5563
1.3123,49.6082
1.3128,50.2186
1.3133,45.6407
1.3138,41.0628
1.3143,39.2316
1.3148,36.1796
1.3153,30.3810
1.3158,26.7186
1.3163,27.6342
1.3168,27.0238
1.3173,22.1407
1.3178,18.1732
1.3183,19.0888
1.3188,19.6991
1.3193,17.8680
1.3198,18.4784
1.3203,21.8355
1.3208,19.3940
1.3213,9.6277
1.3218,5.6602
1.3223,14.5108
1.3228,21.8355
1.3233,12.6797
1.3238,-4.7164
1.3243,-14.1774
1.3248,-13.5670
1.3253,-14.1774
1.3258,-19.9761
1.3263,-24.2488
1.3268,-23.3333
1.3273,-20.8917
1.3278,-18.7553
1.3283,-16.6190
1.3288,-15.3982
1.3293,-17.2294
1.3298,-18.4502
1.3303,-17.5346
1.3308,-16.6190
1.3313,-18.1450
1.3318,-18.1450
1.3323,-14.1774
1.3328,-11.1255
1.3333,-13.2618
1.3338,-16.0086
1.3343,-13.8722
1.3348,-9.2943
1.3353,-6.8528
1.3358,-5.0216
1.3363,-0.7489
1.3368,3.2186
1.3373,3.2186
1.3378,1.3875
1.3383,2.6083
1.3388,6.8810
1.3393,11.1537
1.3398,15.1212
1.3403,20.0043
1.3408,23.9719
1.3413,26.1082
1.3418,27.9394
1.3423,30.6861
1.3428,32.2121
1.3433,32.2121
1.3438,33.4329
1.3443,37.0952
1.3448,41.6731
1.3453,45.9459
1.3458,50.5238
1.3463,55.1017
1.3468,57.5433
1.3473,59.3744
1.3478,63.0368
1.3483,67.3095
1.3488,68.8354
1.3493,69.1406
1.3498,71.5822
1.3503,74.9393
1.3508,74.9393
1.3513,73.4134
1.3518,75.8549
1.3523,80.7380
1.3528,81.0432
1.3533,76.4653
1.3538,73.1082
1.3543,73.4134
1.3548,73.1082
1.3553,70.0562
1.3558,67.6147
1.3563,66.0887
1.3568,61.5108
1.3573,54.4913
1.3578,49.6082
1.3583,47.7770
1.3588,44.1147
1.3593,37.7056
1.3598,33.7381
1.3603,33.4329
1.3608,29.7706
1.3613,20.6147
1.3618,11.4589
1.3623,6.8810
1.3628,3.2186
1.3633,-1.9697
1.3638,-5.9372
1.3643,-6.8528
1.3648,-8.3787
1.3653,-14.1774
1.3658,-21.8073
1.3663,-27.9112
1.3668,-32.4891
1.3673,-35.2358
1.3678,-35.2358
1.3683,-34.6255
1.3688,-36.7618
1.3693,-41.3397
1.3698,-45.0021
1.3703,-45.6125
1.3708,-46.8332
1.3713,-48.6644
1.3718,-48.0540
1.3723,-44.6969
1.3728,-44.0865
1.3733,-48.0540
1.3738,-51.4111
1.3743,-51.4111
1.3748,-50.4956
1.3753,-51.4111
1.3758,-50.8008
1.3763,-47.7488
1.3768,-46.5280
1.3773,-49.2748
1.3778,-51.7163
1.3783,-50.4956
1.3788,-47.7488
1.3793,-47.1384
1.3798,-46.5280
1.3803,-43.4761
1.3808,-41.3397
1.3813,-43.1709
1.3818,-44.6969
1.3823,-43.1709
1.3828,-41.3397
1.3833,-42.2553
1.3838,-41.3397
1.3843,-35.5410
1.3848,-30.3527
1.3853,-31.8787
1.3858,-35.5410
1.3863,-30.3527
1.3868,-16.6190
1.3873,-8.0735
1.3878,-13.2618
1.3883,-23.6385
1.3888,-27.3008
1.3893,-22.7229
1.3898,-18.1450
1.3903,-19.0605
1.3908,-21.1969
1.3913,-19.6709
1.3918,-15.0930
1.3923,-11.7359
1.3928,-12.3463
1.3933,-14.1774
1.3938,-15.0930
1.3943,-15.7034
1.3948,-17.2294
1.3953,-16.9242
1.3958,-13.5670
1.3963,-10.5151
1.3968,-11.4307
1.3973,-14.1774
1.3978,-15.0930
1.3983,-14.1774
1.3988,-14.1774
1.3993,-14.7878
1.3998,-13.2618
1.4003,-11.1255
1.4008,-11.7359
1.4013,-14.1774
1.4018,-15.0930
1.4023,-13.8722
1.4028,-14.4826
1.4033,-15.7034
1.4038,-14.1774
1.4043,-10.2099
1.4048,-8.6839
1.4053,-10.2099
1.4058,-11.7359
1.4062,-12.3463
1.4067,-12.6515
1.4072,-12.0411
1.4077,-8.9891
1.4082,-6.2424
1.4087,-7.4632
1.4092,-10.2099
1.4097,-10.2099
1.4102,-8.6839
1.4107,-8.6839
1.4112,-9.2943
1.4117,-7.1580
1.4122,-4.4112
1.4127,-5.9372
1.4132,-9.9047
1.4137,-10.8203
1.4142,-9.5995
1.4147,-9.9047
1.4152,-11.4307
1.4157,-10.5151
1.4162,-8.0735
1.4167,-8.9891
1.4172,-12.3463
1.4177,-14.1774
1.4182,-13.5670
1.4187,-13.8722
1.4192,-14.4826
1.4197,-12.3463
1.4202,-10.8203
1.4207,-12.9567
1.4212,-17.2294
1.4217,-18.4502
1.4222,-17.8398
1.4227,-19.0605
1.4232,-20.5865
1.4237,-18.4502
1.4242,-15.0930
1.4247,-16.6190
1.4252,-22.1125
1.4257,-26.0800
1.4262,-27.9112
1.4267,-30.6579
1.4272,-33.0995
1.4277,-31.8787
1.4282,-30.3527
1.4287,-33.7099
1.4292,-40.1190
1.4297,-42.2553
1.4302,-40.4242
1.4307,-41.3397
1.4312,-45.6125
1.4317,-47.1384
1.4322,-45.9177
1.4327,-47.1384
1.4332,-52.0215
1.4337,-55.0735
1.4342,-54.4631
1.4347,-54.4631
1.4352,-55.3787
1.4357,-55.0735
1.4362,-54.1579
1.4367,-56.5995
1.4372,-61.7878
1.4377,-63.3137
1.4382,-61.4826
1.4387,-62.0930
1.4392,-65.4501
1.4397,-67.2813
1.4402,-66.0605
1.4407,-67.8916
1.4412,-73.9955
1.4417,-78.2683
1.4422,-77.9631
1.4427,-79.1838
1.4432,-83.4566
1.4437,-85.5929
1.4442,-83.7618
1.4447,-84.9825
1.4452,-92.3072
1.4457,-98.7163
1.4462,-99.3267
1.4467,-99.9371
1.4472,-104.8202
1.4477,-107.2617
1.4482,-103.2942
1.4487,-101.7682
1.4492,-109.0929
1.4497,-114.2812
1.4502,-106.3461
1.4507,-93.8332
1.4512,-93.8332
1.4517,-105.7358
1.4522,-113.6708
1.4527,-111.5344
1.4532,-108.1773
1.4537,-109.3981
1.4542,-110.0085
1.4547,-107.2617
1.4552,-104.5150
1.4557,-103.2942
1.4562,-100.8526
1.4567,-96.5799
1.4572,-95.3591
1.4577,-97.1903
1.4582,-97.4955
1.4587,-95.6643
1.4592,-93.8332
1.4597,-92.6124
1.4602,-89.8656
1.4607,-87.4241
1.4612,-88.6449
1.4617,-91.0864
1.4622,-90.1708
1.4627,-87.7293
1.4632,-88.0345
1.4637,-88.6449
1.4642,-84.6773
1.4647,-78.2683
1.4652,-75.8267
1.4657,-78.2683
1.4662,-79.7942
1.4667,-78.5735
1.4672,-76.7423
1.4677,-74.6059
1.4682,-70.3332
1.4687,-65.7553
1.4692,-64.2293
1.4697,-63.3137
1.4702,-59.9566
1.4707,-55.9891
1.4712,-53.8527
1.4717,-50.8008
1.4722,-44.0865
1.4727,-37.3722
1.4732,-34.6255
1.4737,-34.0151
1.4742,-31.2683
1.4747,-26.3852
1.4752,-22.4177
1.4757,-18.1450
1.4762,-11.7359
1.4767,-6.5476
1.4772,-4.7164
1.4777,-3.4956
1.4782,0.4719
1.4787,5.6602
1.4792,8.7121
1.4797,13.2901
1.4802,21.8355
1.4807,30.3810
1.4812,33.4329
1.4817,34.0433
1.4822,38.3160
1.4827,45.6407
1.4832,51.4394
1.4837,56.9329
1.4842,65.4783
1.4847,75.5497
1.4852,81.3484
1.4857,83.1796
1.4862,85.0108
1.4867,89.8939
1.4872,95.9977
1.4877,102.4068
1.4882,109.1211
1.4887,114.6146
1.4892,118.5821
1.4897,123.1601
1.4902,128.0432
1.4907,130.7899
1.4912,131.7055
1.4917,135.3678
1.4922,142.0821
1.4927,146.9652
1.4932,146.6600
1.4937,146.6600
1.4942,150.0172
1.4947,153.0691
1.4952,153.6795
1.4957,155.8159
1.4962,161.0042
1.4967,164.9717
1.4972,163.4457
1.4977,161.3094
1.4982,163.4457
1.4987,166.4977
1.4992,167.1080
1.4997,168.3288
1.5002,172.6015
1.5007,175.6535
1.5012,174.1275
1.5017,171.6860
1.5022,172.9067
1.5027,174.1275
1.5032,171.9912
1.5037,171.0756
1.5042,174.7379
1.5047,178.4002
1.5052,175.3483
1.5057,168.6340
1.5062,164.0561
1.5067,161.9197
1.5072,158.5626
1.5077,155.2055
1.5082,153.3743
1.5087,150.3224
1.5092,144.8289
1.5097,138.7250
1.5102,133.8419
1.5107,126.8224
1.5112,117.6666
1.5117,111.2575
1.5122,107.5951
1.5127,100.2705
1.5132,88.6731
1.5137,79.2121
1.5142,73.1082
1.5147,63.6471
1.5152,51.1342
1.5157,46.5563
1.5162,52.6601
1.5167,53.2705
1.5172,37.7056
1.5177,15.7316
1.5182,3.2186
1.5187,-0.7489
1.5192,-6.5476
1.5197,-14.1774
1.5202,-17.5346
1.5207,-19.9761
1.5212,-26.9956
1.5217,-36.1514
1.5222,-40.7293
1.5227,-41.9501
1.5232,-45.3073
1.5237,-49.8852
1.5242,-50.8008
1.5247,-50.1904
1.5252,-54.1579
1.5257,-62.0930
1.5262,-68.5020
1.5267,-72.1644
1.5272,-75.2163
1.5277,-77.9631
1.5282,-78.8786
1.5287,-80.4046
1.5292,-84.3721
1.5297,-89.2553
1.5302,-92.3072
1.5307,-94.1384
1.5312,-96.5799
1.5317,-98.1059
1.5322,-97.8007
1.5327,-98.1059
1.5332,-100.8526
1.5337,-103.5994
1.5342,-104.8202
1.5347,-106.0409
1.5352,-107.2617
1.5357,-106.3461
1.5362,-104.2098
1.5367,-104.2098
1.5372,-107.2617
1.5377,-108.7877
1.5382,-107.8721
1.5387,-107.5669
1.5392,-109.3981
1.5397,-109.3981
1.5402,-107.2617
1.5407,-106.6513
1.5412,-109.7033
1.5417,-112.1448
1.5422,-112.1448
1.5427,-112.1448
1.5432,-113.6708
1.5437,-112.7552
1.5442,-108.7877
1.5447,-106.3461
1.5452,-108.4825
1.5457,-111.5344
1.5462,-113.0604
1.5467,-113.9760
1.5472,-114.5864
1.5477,-112.4500
1.5482,-108.1773
1.5487,-106.0409
1.5492,-107.2617
1.5497,-108.1773
1.5502,-105.7358
1.5507,-102.6838
1.5512,-99.6319
1.5517,-95.3591
1.5522,-90.1708
1.5527,-87.1189
1.5532,-85.8981
1.5537,-83.7618
1.5542,-79.7942
1.5547,-77.0475
1.5552,-73.9955
1.5557,-67.2813
1.5562,-59.3462
1.5567,-55.9891
1.5572,-57.2098
1.5577,-57.8202
1.5582,-54.4631
1.5587,-50.1904
1.5592,-46.5280
1.5597,-41.9501
1.5602,-36.4566
1.5607,-34.3203
1.5612,-35.5410
1.5617,-34.9307
1.5622,-30.9631
1.5627,-26.9956
1.5632,-24.2488
1.5637,-19.9761
1.5642,-12.6515
1.5647,-6.5476
1.5652,-5.0216
1.5657,-5.9372
1.5662,-5.0216
1.5667,-2.2748
1.5672,1.6927
1.5677,5.6602
1.5682,8.1018
1.5687,9.6277
1.5692,12.0693
1.5697,16.3420
1.5702,20.6147
1.5707,23.9719
1.5712,28.2446
1.5717,34.3485
1.5722,38.9264
1.5727,38.9264
1.5732,38.0108
1.5737,39.8420
1.5742,43.8095
1.5747,47.1666
1.5752,51.7446
1.5757,58.1536
1.5762,63.6471
1.5767,65.4783
1.5772,65.4783
1.5777,67.3095
1.5782,70.0562
1.5787,73.1082
1.5792,76.7705
1.5797,81.3484
1.5802,85.9263
1.5807,89.8939
1.5812,95.0822
1.5817,99.3549
1.5822,99.9653
1.5827,102.4068
1.5832,115.2250
1.5837,133.5367
1.5842,141.1665
1.5847,133.2315
1.5852,123.1601
1.5857,122.8549
1.5862,127.4328
1.5867,128.3484
1.5872,128.3484
1.5877,132.9263
1.5882,138.4198
1.5887,138.4198
1.5892,136.2834
1.5897,137.8094
1.5902,140.2509
1.5907,138.7250
1.5912,136.5886
1.5917,139.0302
1.5922,142.3873
1.5927,140.2509
1.5932,135.6730
1.5937,134.7574
1.5942,136.5886
1.5947,136.5886
1.5952,135.9782
1.5957,137.5042
1.5962,139.0302
1.5967,136.5886
1.5972,133.5367
1.5977,133.8419
1.5982,135.0626
1.5987,133.8419
1.5992,132.9263
1.5997,135.9782
1.6002,139.0302
1.6007,137.5042
1.6012,134.4522
1.6017,134.7574
1.6022,136.5886
1.6027,136.2834
1.6032,136.2834
1.6037,140.2509
1.6042,144.2185
1.6047,142.9977
1.6052,138.1146
1.6057,134.4522
1.6062,132.6211
1.6067,129.5691
1.6072,127.1276
1.6077,127.4328
1.6082,127.1276
1.6087,122.2445
1.6092,115.5302
1.6097,110.6471
1.6102,106.6796
1.6107,101.1861
1.6112,96.9133
1.6117,95.9977
1.6122,94.4718
1.6127,88.0627
1.6132,81.0432
1.6137,77.6861
1.6142,74.9393
1.6147,68.8354
1.6152,63.3419
1.6157,63.0368
1.6162,63.9523
1.6167,60.2900
1.6172,54.4913
1.6177,51.7446
1.6182,50.2186
1.6187,47.4718
1.6192,45.9459
1.6197,49.6082
1.6202,53.2705
1.6207,49.6082
1.6212,41.6731
1.6217,38.0108
1.6222,38.3160
1.6227,36.4848
1.6232,32.8225
1.6237,32.2121
1.6242,32.5173
1.6247,28.5498
1.6252,20.6147
1.6257,14.8160
1.6262,11.7641
1.6267,7.7966
1.6272,4.1342
1.6277,4.7446
1.6282,6.2706
1.6287,1.9979
1.6292,-4.1060
1.6297,-5.3268
1.6302,-4.7164
1.6307,-10.2099
1.6312,-16.0086
1.6317,-9.2943
1.6322,7.4914
1.6327,16.0368
1.6332,7.7966
1.6337,-3.4956
1.6342,-6.5476
1.6347,-6.8528
1.6352,-11.1255
1.6357,-14.4826
1.6362,-11.1255
1.6367,-7.4632
1.6372,-10.2099
1.6377,-13.5670
1.6382,-11.1255
1.6387,-7.7683
1.6392,-8.9891
1.6397,-8.6839
1.6402,-1.9697
1.6407,1.9979
1.6412,-3.1904
1.6417,-8.9891
1.6422,-0.4437
1.6427,13.5953
1.6432,14.2056
1.6437,-0.1385
1.6442,-11.1255
1.6447,-9.9047
1.6452,-6.8528
1.6457,-12.6515
1.6462,-22.1125
1.6467,-26.6904
1.6472,-27.3008
1.6477,-26.9956
1.6482,-26.3852
1.6487,-25.7748
1.6492,-27.3008
1.6497,-30.9631
1.6502,-32.4891
1.6507,-32.1839
1.6512,-32.4891
1.6517,-32.7943
1.6522,-30.3527
1.6527,-26.9956
1.6532,-27.9112
1.6537,-32.7943
1.6542,-34.6255
1.6547,-31.5735
1.6552,-27.6060
1.6557,-24.8592
1.6562,-22.7229
1.6567,-20.5865
1.6572,-20.2813
1.6577,-21.5021
1.6582,-22.7229
1.6587,-23.3333
1.6592,-23.9437
1.6597,-22.4177
1.6602,-18.7553
1.6607,-17.5346
1.6612,-20.8917
1.6617,-24.5540
1.6622,-24.5540
1.6627,-23.3333
1.6632,-23.9437
1.6637,-23.6385
1.6642,-17.8398
1.6647,-10.8203
1.6652,-8.9891
1.6657,-10.8203
1.6662,-10.5151
1.6667,-6.8528
1.6672,-2.8852
1.6677,0.1667
1.6682,5.3550
1.6687,10.5433
1.6692,13.5953
1.6697,15.4264
1.6702,17.5628
1.6707,19.3940
1.6712,19.6991
1.6717,20.9199
1.6722,24.5823
1.6727,27.6342
1.6732,27.0238
1.6737,24.8875
1.6742,23.6667
1.6747,22.1407
1.6752,19.0888
1.6757,18.1732
1.6762,20.0043
1.6767,19.6991
1.6772,14.5108
1.6777,8.1018
1.6782,4.7446
1.6787,2.3031
1.6792,-1.3593
1.6797,-4.4112
1.6802,-3.4956
1.6807,-3.8008
1.6812,-8.9891
1.6817,-14.4826
1.6822,-15.7034
1.6827,-14.1774
1.6832,-15.0930
1.6837,-16.0086
1.6842,-12.6515
1.6847,-8.0735
1.6852,-7.4632
1.6857,-9.9047
1.6862,-12.3463
1.6867,-13.8722
1.6872,-15.0930
1.6877,-13.8722
1.6882,-10.5151
1.6887,-9.5995
1.6892,-14.1774
1.6897,-19.6709
1.6902,-20.8917
1.6907,-20.5865
1.6912,-22.4177
1.6917,-24.5540
1.6922,-23.3333
1.6927,-22.1125
1.6932,-25.7748
1.6937,-32.1839
1.6942,-35.5410
1.6947,-36.4566
1.6952,-38.2878
1.6957,-40.7293
1.6962,-41.3397
1.6967,-42.5605
1.6972,-47.4436
1.6977,-53.8527
1.6982,-57.2098
1.6987,-57.8202
1.6992,-60.2618
1.6997,-63.9241
1.7002,-64.8397
1.7007,-64.8397
1.7012,-68.8072
1.7017,-76.1319
1.7022,-80.0994
1.7027,-81.3202
1.7032,-84.0670
1.7037,-88.3397
1.7042,-88.3397
1.7047,-83.7618
1.7052,-84.6773
1.7057,-94.7488
1.7062,-102.6838
1.7067,-97.8007
1.7072,-86.5085
1.7077,-85.2877
1.7082,-98.1059
1.7087,-112.4500
1.7092,-117.0279
1.7097,-115.1968
1.7102,-116.7228
1.7107,-123.1318
1.7112,-127.7098
1.7117,-127.0994
1.7122,-125.8786
1.7127,-127.7098
1.7132,-131.0669
1.7137,-133.2033
1.7142,-134.7292
1.7147,-136.2552
1.7152,-136.5604
1.7157,-134.7292
1.7162,-132.5929
1.7167,-133.2033
1.7172,-135.3396
1.7177,-135.0344
1.7182,-133.2033
1.7187,-132.2877
1.7192,-132.2877
1.7197,-130.1513
1.7202,-126.1838
1.7207,-124.6578
1.7212,-126.1838
1.7217,-126.7942
1.7222,-124.6578
1.7227,-121.6059
1.7232,-120.0799
1.7237,-118.2487
1.7242,-115.1968
1.7247,-113.6708
1.7252,-114.5864
1.7257,-116.7228
1.7262,-118.8591
1.7267,-120.3851
1.7272,-120.3851
1.7277,-117.6383
1.7282,-114.2812
1.7287,-114.8916
1.7292,-118.5539
1.7297,-120.3851
1.7302,-118.8591
1.7307,-118.5539
1.7312,-119.7747
1.7317,-118.2487
1.7322,-114.2812
1.7327,-113.0604
1.7332,-116.1124
1.7337,-118.5539
1.7342,-116.7228
1.7347,-115.1968
1.7352,-115.1968
1.7357,-114.2812
1.7362,-110.6189
1.7367,-108.4825
1.7372,-110.3137
1.7377,-111.8396
1.7382,-110.6189
1.7387,-109.0929
1.7392,-108.4825
1.7397,-106.3461
1.7402,-102.6838
1.7407,-101.7682
1.7412,-103.9046
1.7417,-104.8202
1.7422,-102.6838
1.7427,-101.7682
1.7432,-103.2942
1.7437,-102.3786
1.7442,-97.8007
1.7447,-94.7488
1.7452,-97.1903
1.7457,-102.0734
1.7462,-105.1254
1.7467,-106.6513
1.7472,-108.1773
1.7477,-108.1773
1.7482,-107.2617
1.7487,-107.5669
1.7492,-109.3981
1.7497,-110.9241
1.7502,-112.1448
1.7507,-115.5020
1.7512,-118.5539
1.7517,-117.9435
1.7522,-114.8916
1.7527,-114.8916
1.7532,-118.5539
1.7537,-120.6903
1.7542,-120.0799
1.7547,-120.0799
1.7552,-120.9955
1.7557,-120.0799
1.7562,-117.3331
1.7567,-116.4176
1.7572,-118.2487
1.7577,-119.4695
1.7582,-118.8591
1.7587,-117.9435
1.7592,-116.7228
1.7597,-112.7552
1.7602,-108.4825
1.7607,-107.2617
1.7612,-108.4825
1.7617,-107.8721
1.7622,-105.4306
1.7627,-102.9890
1.7632,-100.8526
1.7637,-96.2747
1.7642,-90.1708
1.7647,-84.9825
1.7652,-82.5410
1.7657,-81.9306
1.7662,-82.5410
1.7667,-82.2358
1.7672,-77.9631
1.7677,-70.9436
1.7682,-65.4501
1.7687,-63.0085
1.7692,-59.3462
1.7697,-54.4631
1.7702,-51.7163
1.7707,-48.9696
1.7712,-38.2878
1.7717,-21.1969
1.7722,-11.7359
1.7727,-16.6190
1.7732,-24.8592
1.7737,-22.1125
1.7742,-12.6515
1.7747,-7.1580
1.7752,-5.3268
1.7757,0.1667
1.7762,8.4070
1.7767,11.4589
1.7772,10.8485
1.7777,12.9849
1.7782,18.1732
1.7787,21.8355
1.7792,24.2771
1.7797,29.1602
1.7802,35.5693
1.7807,38.6212
1.7812,39.2316
1.7817,42.5887
1.7822,47.7770
1.7827,51.4394
1.7832,54.4913
1.7837,61.2056
1.7842,69.4458
1.7847,74.0238
1.7852,75.2445
1.7857,77.0757
1.7862,80.4328
1.7867,82.8744
1.7872,86.2315
1.7877,91.4198
1.7882,96.3029
1.7887,99.0497
1.7892,101.7964
1.7897,106.6796
1.7902,110.3419
1.7907,111.5627
1.7912,114.9198
1.7917,122.5497
1.7922,128.3484
1.7927,127.7380
1.7932,125.9068
1.7937,129.2639
1.7942,134.1471
1.7947,135.6730
1.7952,136.2834
1.7957,140.5561
1.7962,145.7444
1.7967,145.7444
1.7972,143.6081
1.7977,145.4392
1.7982,149.7120
1.7987,152.4587
1.7992,154.5951
1.7997,159.1730
1.8002,162.8353
1.8007,161.6145
1.8012,159.7834
1.8017,162.2249
1.8022,166.1925
1.8027,166.8029
1.8032,166.8029
1.8037,172.9067
1.8042,181.4522
1.8047,183.5885
1.8052,180.5366
1.8057,178.4002
1.8062,178.7054
1.8067,178.0950
1.8072,177.7899
1.8077,181.4522
1.8082,185.7249
1.8087,185.1145
1.8092,181.4522
1.8097,180.5366
1.8102,182.0626
1.8107,180.8418
1.8112,179.0106
1.8117,180.5366
1.8122,183.8937
1.8127,182.3678
1.8132,176.8743
1.8137,174.1275
1.8142,174.7379
1.8147,175.0431
1.8152,174.1275
1.8157,175.6535
1.8162,177.4847
1.8167,175.9587
1.8172,172.6015
1.8177,172.6015
1.8182,175.6535
1.8187,176.2639
1.8192,174.7379
1.8197,175.9587
1.8202,180.2314
1.8207,181.1470
1.8212,177.4847
1.8217,175.6535
1.8222,177.1795
1.8227,178.4002
1.8232,178.0950
1.8237,179.6210
1.8242,183.2834
1.8247,183.8937
1.8252,179.0106
1.8257,174.4327
1.8262,174.1275
1.8267,173.8223
1.8272,170.1600
1.8277,167.1080
1.8282,167.7184
1.8287,168.6340
1.8292,165.2769
1.8297,160.3938
1.8302,157.9522
1.8307,155.8159
1.8312,150.9327
1.8317,146.0496
1.8322,146.6600
1.8327,147.8808
1.8332,142.9977
1.8337,135.0626
1.8342,132.0107
1.8347,132.9263
1.8352,128.9587
1.8357,121.6341
1.8362,121.3289
1.8367,131.7055
1.8372,139.6405
1.8377,133.2315
1.8382,117.3614
1.8387,106.0692
1.8392,103.9328
1.8397,105.4588
1.8402,105.7640
1.8407,103.3224
1.8412,99.6601
1.8417,95.9977
1.8422,93.8614
1.8427,92.0302
1.8432,88.9783
1.8437,86.2315
1.8442,86.8419
1.8447,88.9783
1.8452,87.4523
1.8457,80.4328
1.8462,72.1926
1.8467,66.6991
1.8472,63.6471
1.8477,62.1212
1.8482,61.5108
1.8487,59.9848
1.8492,56.9329
1.8497,52.0498
1.8502,48.0822
1.8507,45.0303
1.8512,43.1991
1.8517,43.1991
1.8522,44.1147
1.8527,44.1147
1.8532,41.0628
1.8537,37.7056
1.8542,36.7900
1.8547,36.1796
1.8552,34.6537
1.8557,33.4329
1.8562,34.0433
1.8567,33.1277
1.8572,28.2446
1.8577,23.3615
1.8582,21.8355
1.8587,21.8355
1.8592,20.0043
1.8597,18.1732
1.8602,19.0888
1.8607,19.0888
1.8612,14.5108
1.8617,8.1018
1.8622,4.4394
1.8627,2.9135
1.8632,0.1667
1.8637,-3.1904
1.8642,-3.8008
1.8647,-3.1904
1.8652,-5.3268
1.8657,-10.5151
1.8662,-15.3982
1.8667,-19.0605
1.8672,-21.5021
1.8677,-22.4177
1.8682,-22.1125
1.8687,-23.6385
1.8692,-27.6060
1.8697,-30.9631
1.8702,-32.4891
1.8707,-35.5410
1.8712,-39.8138
1.8717,-41.6449
1.8722,-39.8138
1.8727,-40.1190
1.8732,-44.6969
1.8737,-49.8852
1.8742,-51.7163
1.8747,-52.9371
1.8752,-55.6839
1.8757,-56.2943
1.8762,-53.8527
1.8767,-52.9371
1.8772,-56.9046
1.8777,-61.1774
1.8782,-62.0930
1.8787,-62.0930
1.8792,-64.5345
1.8797,-66.3657
1.8802,-64.5345
1.8807,-63.3137
1.8812,-66.6709
1.8817,-70.9436
1.8822,-71.8592
1.8827,-71.5540
1.8832,-73.6903
1.8837,-76.1319
1.8842,-74.6059
1.8847,-71.2488
1.8852,-71.5540
1.8857,-75.5215
1.8862,-78.8786
1.8867,-79.4890
1.8872,-78.8786
1.8877,-77.6579
1.8882,-75.2163
1.8887,-73.9955
1.8892,-75.8267
1.8897,-79.1838
1.8902,-79.4890
1.8907,-77.6579
1.8912,-76.7423
1.8917,-77.0475
1.8922,-77.3527
1.8927,-77.9631
1.8932,-80.7098
1.8937,-84.3721
1.8942,-86.2033
1.8947,-86.2033
1.8952,-87.1189
1.8957,-87.7293
1.8962,-86.5085
1.8967,-84.9825
1.8972,-88.6449
1.8977,-96.2747
1.8982,-99.0215
1.8987,-90.4760
1.8992,-78.5735
1.8997,-77.6579
1.9002,-90.4760
1.9007,-104.8202
1.9012,-109.7033
1.9017,-106.6513
1.9022,-105.4306
1.9027,-109.0929
1.9032,-111.8396
1.9037,-108.7877
1.9042,-103.9046
1.9047,-101.4630
1.9052,-102.0734
1.9057,-102.9890
1.9062,-103.9046
1.9067,-104.5150
1.9072,-103.5994
1.9077,-100.5474
1.9082,-97.8007
1.9087,-97.8007
1.9092,-97.8007
1.9097,-95.9695
1.9102,-95.0539
1.9107,-96.5799
1.9112,-97.8007
1.9117,-95.0539
1.9122,-91.0864
1.9127,-91.6968
1.9132,-95.6643
1.9137,-97.1903
1.9142,-95.6643
1.9147,-95.3591
1.9152,-96.5799
1.9157,-95.6643
1.9162,-93.2228
1.9167,-93.2228
1.9172,-96.5799
1.9177,-98.1059
1.9182,-97.1903
1.9187,-97.1903
1.9192,-97.8007
1.9197,-95.3591
1.9202,-90.7812
1.9207,-89.8656
1.9212,-93.8332
1.9217,-96.8851
1.9222,-95.6643
1.9227,-93.8332
1.9232,-93.8332
1.9237,-93.2228
1.9242,-89.8656
1.9247,-86.5085
1.9252,-87.1189
1.9257,-91.0864
1.9262,-95.0539
1.9267,-97.4955
1.9272,-97.4955
1.9277,-95.3591
1.9282,-93.2228
1.9287,-94.4436
1.9292,-96.8851
1.9297,-97.8007
1.9302,-96.5799
1.9307,-96.2747
1.9312,-95.9695
1.9317,-93.5280
1.9322,-91.3916
1.9327,-92.6124
1.9332,-95.0539
1.9337,-94.1384
1.9342,-91.0864
1.9347,-89.2553
1.9352,-86.8137
1.9357,-81.0150
1.9362,-73.6903
1.9367,-70.9436
1.9372,-71.5540
1.9377,-70.6384
1.9382,-67.2813
1.9387,-64.8397
1.9392,-62.7033
1.9397,-57.2098
1.9402,-50.8008
1.9407,-48.9696
1.9412,-51.7163
1.9417,-52.3267
1.9422,-49.5800
1.9427,-47.7488
1.9432,-47.4436
1.9437,-45.0021
1.9442,-40.1190
1.9447,-37.6774
1.9452,-39.8138
1.9457,-43.4761
1.9462,-45.3073
1.9467,-45.3073
1.9472,-44.0865
1.9477,-41.9501
1.9482,-40.4242
1.9487,-40.7293
1.9492,-40.7293
1.9497,-39.2034
1.9502,-38.2878
1.9507,-38.8982
1.9512,-38.5930
1.9517,-34.0151
1.9522,-28.5216
1.9527,-27.6060
1.9532,-30.0475
1.9537,-31.2683
1.9542,-30.6579
1.9547,-30.3527
1.9552,-29.1320
1.9557,-25.7748
1.9562,-22.1125
1.9567,-21.1969
1.9572,-22.4177
1.9577,-22.7229
1.9582,-22.4177
1.9587,-21.5021
1.9592,-18.4502
1.9597,-13.8722
1.9602,-11.1255
1.9607,-11.4307
1.9612,-11.7359
1.9617,-11.7359
1.9622,-13.5670
1.9627,-14.1774
1.9632,-6.2424
1.9637,7.7966
1.9642,15.4264
1.9647,9.3225
1.9652,0.1667
1.9657,-1.0541
1.9662,2.9135
1.9667,4.1342
1.9672,3.8290
1.9677,7.4914
1.9682,12.6797
1.9686,13.2901
1.9691,12.0693
1.9696,13.9005
1.9701,18.1732
1.9706,19.6991
1.9711,21.5303
1.9716,27.6342
1.9721,34.3485
1.9726,35.2641
1.9731,33.1277
1.9736,34.6537
1.9741,38.6212
1.9746,39.2316
1.9751,38.9264
1.9756,41.9783
1.9761,45.9459
1.9766,43.5043
1.9771,38.0108
1.9776,37.0952
1.9781,40.4524
1.9786,40.1472
1.9791,35.5693
1.9796,34.0433
1.9801,37.4004
1.9806,40.1472
1.9811,38.6212
1.9816,36.4848
1.9821,36.1796
1.9826,37.4004
1.9831,40.1472
1.9836,45.3355
1.9841,50.5238
1.9846,52.0498
1.9851,51.7446
1.9856,53.8809
1.9861,57.5433
1.9866,59.6796
1.9871,62.4264
1.9876,69.1406
1.9881,76.7705
1.9886,81.0432
1.9891,83.1796
1.9896,86.8419
1.9901,90.1991
1.9906,89.8939
1.9911,90.1991
1.9916,95.9977
1.9921,103.6276
1.9926,104.5432
1.9931,101.1861
1.9936,100.5757
1.9941,103.0172
1.9946,103.0172
1.9951,101.1861
1.9956,103.6276
1.9961,108.8159
1.9966,108.8159
1.9971,103.3224
1.9976,99.3549
1.9981,99.6601
1.9986,99.0497
1.9991,96.6081
1.9996,95.6926
2.0001,96.3029
2.0006,93.5562
2.0011,88.3679
2.0016,86.5367
2.0021,88.0627
2.0026,87.1471
2.0031,83.4848
2.0036,83.7900
2.0041,88.6731
2.0046,90.8094
2.0051,86.2315
2.0056,80.7380
2.0061,79.2121
2.0066,78.6017
2.0071,77.0757
2.0076,77.6861
2.0081,80.7380
2.0086,79.5173
2.0091,70.9718
2.0096,62.7316
2.0101,61.2056
2.0106,62.4264
2.0111,61.2056
2.0116,59.0692
2.0121,60.9004
2.0126,63.3419
2.0131,61.2056
2.0136,56.3225
2.0141,54.4913
2.0146,55.1017
2.0151,53.8809
2.0156,52.0498
2.0161,53.2705
2.0166,54.7965
2.0171,52.3549
2.0176,47.1666
2.0181,44.7251
2.0186,45.3355
2.0191,45.3355
2.0196,44.1147
2.0201,45.3355
2.0206,46.8614
2.0211,45.0303
2.0216,41.0628
2.0221,39.5368
2.0226,39.8420
2.0231,38.0108
2.0236,35.2641
2.0241,35.8745
2.0246,38.3160
2.0251,35.2641
2.0256,27.6342
2.0261,23.3615
2.0266,23.9719
2.0271,21.8355
2.0276,16.3420
2.0281,16.9524
2.0286,27.6342
2.0291,36.7900
2.0296,30.3810
2.0301,13.5953
2.0306,1.3875
2.0311,0.4719
2.0316,3.2186
2.0321,2.3031
2.0326,-0.7489
2.0331,-3.1904
2.0336,-4.1060
2.0341,-5.6320
2.0346,-8.3787
2.0351,-11.4307
2.0356,-12.6515
2.0361,-13.5670
2.0366,-15.7034
2.0371,-19.3657
2.0376,-20.8917
2.0381,-19.3657
2.0386,-17.2294
2.0391,-16.9242
2.0396,-17.2294
2.0401,-16.3138
2.0406,-16.0086
2.0411,-17.5346
2.0416,-19.6709
2.0421,-19.6709
2.0426,-19.3657
2.0431,-20.2813
2.0436,-19.9761
2.0441,-16.6190
2.0446,-13.5670
2.0451,-15.7034
2.0456,-20.8917
2.0461,-24.2488
2.0466,-24.8592
2.0471,-25.7748
2.0476,-26.6904
2.0481,-26.6904
2.0486,-26.9956
2.0491,-29.7423
2.0496,-33.0995
2.0501,-34.3203
2.0506,-34.3203
2.0511,-34.6255
2.0516,-33.7099
2.0521,-31.8787
2.0526,-31.2683
2.0531,-33.7099
2.0536,-35.2358
2.0541,-34.0151
2.0546,-32.7943
2.0551,-33.4047
2.0556,-32.4891
2.0561,-28.8268
2.0566,-26.6904
2.0571,-29.4372
2.0576,-32.7943
2.0581,-32.7943
2.0586,-32.1839
2.0591,-33.4047
2.0596,-33.7099
2.0601,-30.6579
2.0606,-28.8268
2.0611,-31.8787
2.0616,-36.1514
2.0621,-36.1514
2.0626,-34.0151
2.0631,-33.7099
2.0636,-33.0995
2.0641,-29.4372
2.0646,-25.7748
2.0651,-26.3852
2.0656,-29.1320
2.0661,-29.7423
2.0666,-28.5216
2.0671,-27.9112
2.0676,-27.3008
2.0681,-24.2488
2.0686,-21.5021
2.0691,-21.1969
2.0696,-21.5021
2.0701,-20.5865
2.0706,-19.6709
2.0711,-20.5865
2.0716,-19.3657
2.0721,-14.1774
2.0726,-9.9047
2.0731,-11.1255
2.0736,-13.5670
2.0741,-12.3463
2.0746,-9.9047
2.0751,-9.5995
2.0756,-8.9891
2.0761,-5.6320
2.0766,-2.8852
2.0771,-4.7164
2.0776,-8.3787
2.0781,-8.3787
2.0786,-5.9372
2.0791,-6.2424
2.0796,-7.1580
2.0801,-5.0216
2.0806,-2.2748
2.0811,-3.1904
2.0816,-6.2424
2.0821,-6.2424
2.0826,-3.8008
2.0831,-2.2748
2.0836,-1.0541
2.0841,2.9135
2.0846,6.8810
2.0851,6.2706
2.0856,2.6083
2.0861,1.3875
2.0866,1.6927
2.0871,1.3875
2.0876,2.3031
2.0881,7.4914
2.0886,10.8485
2.0891,6.5758
2.0896,1.9979
2.0901,8.1018
2.0906,22.4459
2.0911,29.7706
2.0916,22.7511
2.0921,10.5433
2.0926,5.3550
2.0931,6.2706
2.0936,6.2706
2.0941,3.5238
2.0946,1.0823
2.0951,0.7771
2.0956,2.3031
2.0961,3.2186
2.0966,2.9135
2.0971,1.0823
2.0976,0.1667
2.0981,-0.1385
2.0986,0.1667
2.0991,1.0823
2.0996,3.2186
2.1001,5.6602
2.1006,6.2706
2.1011,4.4394
2.1016,3.2186
2.1021,4.1342
2.1026,6.2706
2.1031,8.1018
2.1036,10.5433
2.1041,14.5108
2.1046,17.2576
2.1051,17.8680
2.1056,17.2576
2.1061,16.6472
2.1066,15.4264
2.1071,15.4264
2.1076,17.5628
2.1081,20.6147
2.1086,20.9199
2.1091,19.0888
2.1096,18.1732
2.1101,18.7836
2.1106,17.8680
2.1111,15.7316
2.1116,16.3420
2.1121,18.7836
2.1126,18.4784
2.1131,14.5108
2.1136,11.7641
2.1141,11.4589
2.1146,11.1537
2.1151,9.9329
2.1156,10.5433
2.1161,12.9849
2.1166,12.3745
2.1171,8.4070
2.1176,5.6602
2.1181,6.5758
2.1186,7.7966
2.1191,7.1862
2.1196,7.7966
2.1201,9.6277
2.1206,9.6277
2.1211,7.4914
2.1216,5.9654
2.1221,5.9654
2.1226,5.6602
2.1231,5.0498
2.1236,7.1862
2.1241,10.8485
2.1246,11.1537
2.1251,8.1018
2.1256,5.0498
2.1261,3.5238
2.1266,1.0823
2.1271,-1.6645
2.1276,-1.3593
2.1281,0.1667
2.1286,-0.7489
2.1291,-4.7164
2.1296,-7.1580
2.1301,-7.1580
2.1306,-6.8528
2.1311,-7.1580
2.1316,-5.9372
2.1321,-5.3268
2.1326,-7.1580
2.1331,-10.5151
2.1336,-12.0411
2.1341,-11.7359
2.1346,-12.9567
2.1351,-14.1774
2.1356,-12.0411
2.1361,-8.9891
2.1366,-9.5995
2.1371,-13.2618
2.1376,-14.7878
2.1381,-13.2618
2.1386,-12.3463
2.1391,-11.7359
2.1396,-9.9047
2.1401,-7.4632
2.1406,-8.3787
2.1411,-12.0411
2.1416,-14.1774
2.1421,-13.8722
2.1426,-14.1774
2.1431,-15.0930
2.1436,-14.4826
2.1441,-13.2618
2.1446,-13.5670
2.1451,-16.3138
2.1456,-19.9761
2.1461,-23.9437
2.1466,-26.9956
2.1471,-26.6904
2.1476,-23.9437
2.1481,-23.3333
2.1486,-26.3852
2.1491,-29.4372
2.1496,-30.0475
2.1501,-31.2683
2.1506,-34.3203
2.1511,-34.3203
2.1516,-30.0475
2.1521,-27.3008
2.1526,-29.1320
2.1531,-31.5735
2.1536,-29.7423
2.1541,-27.6060
2.1546,-27.9112
2.1551,-27.6060
2.1556,-23.6385
2.1561,-20.8917
2.1566,-22.4177
2.1571,-24.5540
2.1576,-23.6385
2.1581,-22.7229
2.1586,-23.6385
2.1591,-22.1125
2.1596,-17.8398
2.1601,-18.4502
2.1606,-23.6385
2.1611,-20.5865
2.1616,-6.8528
2.1621,-0.1385
2.1626,-14.4826
2.1631,-35.2358
2.1636,-38.8982
2.1641,-26.6904
2.1646,-18.4502
2.1651,-21.5021
2.1656,-26.6904
2.1661,-28.2164
2.1666,-29.1320
2.1671,-30.0475
2.1676,-27.6060
2.1681,-23.9437
2.1686,-25.7748
2.1691,-32.1839
2.1696,-35.2358
2.1701,-34.3203
2.1706,-34.0151
2.1711,-33.7099
2.1716,-29.4372
2.1721,-24.5540
2.1726,-26.3852
2.1731,-32.4891
2.1736,-34.6255
2.1741,-32.1839
2.1746,-30.9631
2.1751,-30.9631
2.1756,-27.9112
2.1761,-23.6385
2.1766,-25.7748
2.1771,-33.0995
2.1776,-37.9826
2.1781,-37.6774
2.1786,-37.0670
2.1791,-37.6774
2.1796,-36.4566
2.1801,-34.3203
2.1806,-35.8462
2.1811,-40.7293
2.1816,-42.5605
2.1821,-40.4242
2.1826,-37.9826
2.1831,-37.0670
2.1836,-35.2358
2.1841,-33.0995
2.1846,-34.0151
2.1851,-37.0670
2.1856,-37.9826
2.1861,-36.7618
2.1866,-35.5410
2.1871,-34.3203
2.1876,-30.6579
2.1881,-26.3852
2.1886,-24.5540
2.1891,-25.1644
2.1896,-23.6385
2.1901,-21.1969
2.1906,-19.9761
2.1911,-18.4502
2.1916,-14.1774
2.1921,-11.1255
2.1926,-14.1774
2.1931,-20.2813
2.1936,-20.8917
2.1941,-16.0086
2.1946,-13.2618
2.1951,-13.8722
2.1956,-12.3463
2.1961,-6.5476
2.1966,-3.1904
2.1971,-5.6320
2.1976,-8.3787
2.1981,-7.1580
2.1986,-5.0216
2.1991,-5.6320
2.1996,-5.6320
2.2001,-1.9697
2.2006,1.3875
2.2011,0.4719
2.2016,-1.6645
2.2021,-1.3593
2.2026,0.4719
2.2031,0.7771
2.2036,1.3875
2.2041,5.3550
2.2046,11.1537
2.2051,13.5953
2.2056,11.7641
2.2061,9.9329
2.2066,9.6277
2.2071,10.8485
2.2076,12.9849
2.2081,16.0368
2.2086,18.1732
2.2091,17.2576
2.2096,15.7316
2.2101,15.4264
2.2106,15.4264
2.2111,15.1212
2.2116,15.7316
2.2121,18.7836
2.2126,20.9199
2.2131,19.6991
2.2136,16.9524
2.2141,16.0368
2.2146,16.6472
2.2151,16.0368
2.2156,16.9524
2.2161,20.0043
2.2166,22.4459
2.2171,20.9199
2.2176,18.4784
2.2181,19.0888
2.2186,21.5303
2.2191,22.4459
2.2196,23.9719
2.2201,27.6342
2.2206,30.9913
2.2211,29.7706
2.2216,27.3290
2.2221,28.5498
2.2226,31.2965
2.2231,32.2121
2.2236,32.8225
2.2241,37.4004
2.2246,42.2835
2.2251,41.6731
2.2256,37.4004
2.2261,35.5693
2.2266,36.7900
2.2271,36.4848
2.2276,36.4848
2.2281,39.2316
2.2286,41.9783
2.2291,39.2316
2.2296,34.0433
2.2301,34.6537
2.2306,39.2316
2.2311,38.6212
2.2316,34.6537
2.2321,38.3160
2.2326,51.1342
2.2331,58.7640
2.2336,51.7446
2.2341,38.6212
2.2346,31.9069
2.2351,34.0433
2.2356,38.6212
2.2361,40.4524
2.2366,40.1472
2.2371,38.6212
2.2376,36.4848
2.2381,34.6537
2.2386,33.4329
2.2391,31.6017
2.2396,30.0758
2.2401,30.3810
2.2406,30.6861
2.2411,28.2446
2.2416,23.0563
2.2421,18.1732
2.2426,15.7316
2.2431,14.5108
2.2436,12.9849
2.2441,12.6797
2.2446,13.2901
2.2451,12.0693
2.2456,8.7121
2.2461,4.4394
2.2466,1.3875
2.2471,0.7771
2.2476,2.6083
2.2481,5.0498
2.2486,7.4914
2.2491,10.5433
2.2496,14.5108
2.2501,16.6472
2.2506,16.6472
2.2511,17.5628
2.2516,22.7511
2.2521,30.6861
2.2526,36.4848
2.2531,39.8420
2.2536,44.4199
2.2541,50.5238
2.2546,54.7965
2.2551,57.5433
2.2556,63.0368
2.2561,70.6666
2.2566,74.9393
2.2571,75.5497
2.2576,76.4653
2.2581,79.2121
2.2586,80.7380
2.2591,80.7380
2.2596,82.8744
2.2601,87.1471
2.2606,88.0627
2.2611,85.3159
2.2616,83.4848
2.2621,84.0952
2.2626,83.4848
2.2631,81.6536
2.2636,81.3484
2.2641,84.0952
2.2646,84.7056
2.2651,81.6536
2.2656,78.2965
2.2661,76.1601
2.2666,73.4134
2.2671,70.9718
2.2676,71.8874
2.2681,74.3289
2.2686,72.4978
2.2691,67.3095
2.2696,64.8679
2.2701,65.7835
2.2706,64.5627
2.2711,60.5952
2.2716,59.3744
2.2721,61.5108
2.2726,60.9004
2.2731,56.3225
2.2736,52.0498
2.2741,50.2186
2.2746,47.4718
2.2751,44.1147
2.2756,43.5043
2.2761,44.4199
2.2766,41.9783
2.2771,35.5693
2.2776,31.6017
2.2781,29.7706
2.2786,26.1082
2.2791,21.2251
2.2796,20.0043
2.2801,20.3095
2.2806,15.4264
2.2811,7.4914
2.2816,4.4394
2.2821,2.3031
2.2826,-6.2424
2.2831,-16.6190
2.2836,-14.1774
2.2841,-0.7489
2.2846,1.9979
2.2851,-13.8722
2.2856,-34.0151
2.2861,-42.2553
2.2866,-43.1709
2.2871,-47.1384
2.2876,-51.7163
2.2881,-51.4111
2.2886,-49.2748
2.2891,-52.3267
2.2896,-58.4306
2.2901,-61.4826
2.2906,-62.7033
2.2911,-65.7553
2.2916,-68.1968
2.2921,-67.8916
2.2926,-67.8916
2.2931,-71.8592
2.2936,-77.0475
2.2941,-79.4890
2.2946,-80.7098
2.2951,-81.9306
2.2956,-81.3202
2.2961,-78.2683
2.2966,-77.6579
2.2971,-80.4046
2.2976,-82.2358
2.2981,-80.7098
2.2986,-78.2683
2.2991,-76.7423
2.2996,-73.6903
2.3001,-68.8072
2.3006,-64.8397
2.3011,-63.6189
2.3016,-61.4826
2.3021,-57.2098
2.3026,-52.6319
2.3031,-48.3592
2.3036,-41.9501
2.3041,-33.7099
2.3046,-27.9112
2.3051,-24.8592
2.3056,-21.5021
2.3061,-17.8398
2.3066,-15.3982
2.3071,-13.5670
2.3076,-8.6839
2.3081,-2.2748
2.3086,0.4719
2.3091,-0.4437
2.3096,-0.7489
2.3101,0.7771
2.3106,2.3031
2.3111,2.6083
2.3116,3.8290
2.3121,5.9654
2.3126,5.3550
2.3131,2.6083
2.3136,0.1667
2.3141,-1.3593
2.3146,-3.4956
2.3151,-5.3268
2.3156,-4.7164
2.3161,-3.4956
2.3166,-6.2424
2.3171,-11.1255
2.3176,-13.2618
2.3181,-12.9567
2.3186,-14.1774
2.3191,-16.0086
2.3196,-14.7878
2.3201,-12.0411
2.3206,-12.3463
2.3211,-16.3138
2.3216,-18.7553
2.3221,-17.8398
2.3226,-17.2294
2.3231,-17.8398
2.3236,-17.2294
2.3241,-15.0930
2.3246,-14.1774
2.3251,-15.7034
2.3256,-18.4502
2.3261,-21.5021
2.3266,-24.8592
2.3271,-26.6904
2.3276,-25.7748
2.3281,-25.1644
2.3286,-28.2164
2.3291,-32.7943
2.3296,-35.5410
2.3301,-36.7618
2.3306,-39.2034
2.3311,-41.3397
2.3316,-40.4242
2.3321,-38.8982
2.3326,-41.0345
2.3331,-45.3073
2.3336,-47.1384
2.3341,-46.5280
2.3346,-47.1384
2.3351,-48.0540
2.3356,-46.2228
2.3361,-44.0865
2.3366,-45.6125
2.3371,-49.2748
2.3376,-49.8852
2.3381,-47.7488
2.3386,-48.3592
2.3391,-50.1904
2.3396,-48.0540
2.3401,-44.0865
2.3406,-45.3073
2.3411,-50.4956
2.3416,-51.7163
2.3421,-48.3592
2.3426,-48.3592
2.3431,-52.6319
2.3436,-52.3267
2.3441,-47.4436
2.3446,-47.4436
2.3451,-56.2943
2.3456,-61.4826
2.3461,-52.9371
2.3466,-39.5086
2.3471,-37.0670
2.3476,-47.7488
2.3481,-59.0410
2.3486,-62.7033
2.3491,-60.2618
2.3496,-58.7358
2.3501,-59.9566
2.3506,-61.1774
2.3511,-59.3462
2.3516,-55.0735
2.3521,-51.7163
2.3526,-52.6319
2.3531,-55.0735
2.3536,-54.4631
2.3541,-52.0215
2.3546,-50.4956
2.3551,-49.8852
2.3556,-46.5280
2.3561,-40.4242
2.3566,-37.3722
2.3571,-38.5930
2.3576,-39.5086
2.3581,-37.6774
2.3586,-35.5410
2.3591,-33.7099
2.3596,-30.9631
2.3601,-27.6060
2.3606,-27.6060
2.3611,-30.3527
2.3616,-31.8787
2.3621,-30.3527
2.3626,-29.1320
2.3631,-28.5216
2.3636,-26.6904
2.3641,-23.9437
2.3646,-24.2488
2.3651,-27.6060
2.3656,-30.3527
2.3661,-30.6579
2.3666,-31.2683
2.3671,-32.1839
2.3676,-31.2683
2.3681,-29.1320
2.3686,-29.4372
2.3691,-31.8787
2.3696,-33.7099
2.3701,-34.0151
2.3706,-34.9307
2.3711,-34.9307
2.3716,-31.5735
2.3721,-26.6904
2.3726,-25.7748
2.3731,-27.9112
2.3736,-27.6060
2.3741,-23.9437
2.3746,-22.1125
2.3751,-23.3333
2.3756,-22.1125
2.3761,-16.0086
2.3766,-10.2099
2.3771,-10.8203
2.3776,-14.7878
2.3781,-17.2294
2.3786,-18.1450
2.3791,-19.3657
2.3796,-18.7553
2.3801,-14.7878
2.3806,-11.4307
2.3811,-11.1255
2.3816,-12.6515
2.3821,-12.3463
2.3826,-11.1255
2.3831,-10.2099
2.3836,-8.3787
2.3841,-5.6320
2.3846,-3.8008
2.3851,-4.4112
2.3856,-5.3268
2.3861,-4.7164
2.3866,-3.4956
2.3871,-1.9697
2.3876,0.4719
2.3881,4.4394
2.3886,6.8810
2.3891,6.8810
2.3896,6.5758
2.3901,8.1018
2.3906,10.5433
2.3911,12.6797
2.3916,16.9524
2.3921,23.0563
2.3926,27.3290
2.3931,28.5498
2.3936,30.0758
2.3941,33.4329
2.3946,35.2641
2.3951,35.2641
2.3956,37.7056
2.3961,44.4199
2.3966,49.6082
2.3971,50.2186
2.3976,49.6082
2.3981,51.4394
2.3986,53.8809
2.3991,54.4913
2.3996,56.6277
2.4001,61.2056
2.4006,64.8679
2.4011,64.5627
2.4016,63.6471
2.4021,65.1731
2.4026,67.3095
2.4031,67.6147
2.4036,69.4458
2.4041,74.0238
2.4046,78.9069
2.4051,81.0432
2.4056,81.6536
2.4061,82.2640
2.4066,82.5692
2.4071,83.4848
2.4076,87.4523
2.4081,93.5562
2.4086,96.6081
2.4091,96.3029
2.4096,96.9133
2.4101,98.1341
2.4106,97.5237
2.4111,97.2185
2.4116,100.8809
2.4121,104.5432
2.4126,103.3224
2.4131,102.1016
2.4136,109.4263
2.4141,119.1925
2.4146,117.6666
2.4151,105.1536
2.4156,98.7445
2.4161,104.8484
2.4166,110.9523
2.4171,108.2055
2.4176,103.3224
2.4181,104.5432
2.4186,107.2899
2.4191,105.7640
2.4196,104.5432
2.4201,108.2055
2.4206,111.2575
2.4211,107.5951
2.4216,102.7120
2.4221,103.0172
2.4226,105.1536
2.4231,104.2380
2.4236,103.0172
2.4241,104.8484
2.4246,106.3744
2.4251,103.6276
2.4256,99.9653
2.4261,99.0497
2.4266,98.7445
2.4271,96.6081
2.4276,95.3874
2.4281,96.3029
2.4286,94.7770
2.4291,89.5887
2.4296,84.7056
2.4301,83.1796
2.4306,81.6536
2.4311,77.3809
2.4316,74.9393
2.4321,76.4653
2.4326,76.7705
2.4331,71.2770
2.4336,65.7835
2.4341,64.5627
2.4346,65.1731
2.4351,62.1212
2.4356,57.8484
2.4361,56.3225
2.4366,54.4913
2.4371,49.9134
2.4376,44.1147
2.4381,40.7576
2.4386,38.0108
2.4391,33.7381
2.4396,29.7706
2.4401,28.2446
2.4406,25.8030
2.4411,19.6991
2.4416,12.6797
2.4421,8.4070
2.4426,5.0498
2.4431,0.7771
2.4436,-1.3593
2.4441,-0.1385
2.4446,0.4719
2.4451,-2.8852
2.4456,-8.6839
2.4461,-12.3463
2.4466,-14.1774
2.4471,-15.7034
2.4476,-17.2294
2.4481,-17.5346
2.4486,-18.4502
2.4491,-20.8917
2.4496,-23.9437
2.4501,-26.9956
2.4506,-30.6579
2.4511,-34.9307
2.4516,-36.4566
2.4521,-35.8462
2.4526,-37.0670
2.4531,-41.9501
2.4536,-45.9177
2.4541,-46.5280
2.4546,-46.5280
2.4551,-47.4436
2.4556,-46.8332
2.4561,-43.7813
2.4566,-42.8657
2.4571,-45.3073
2.4576,-48.0540
2.4581,-48.3592
2.4586,-48.0540
2.4591,-48.6644
2.4596,-48.6644
2.4601,-48.3592
2.4606,-50.4956
2.4611,-54.7683
2.4616,-58.1254
2.4621,-59.6514
2.4626,-62.3981
2.4631,-66.0605
2.4636,-66.3657
2.4641,-64.2293
2.4646,-64.5345
2.4651,-67.5865
2.4656,-69.4176
2.4661,-69.7228
2.4666,-70.9436
2.4671,-71.8592
2.4676,-70.0280
2.4681,-67.2813
2.4686,-69.1124
2.4691,-73.3851
2.4696,-74.3007
2.4701,-72.7748
2.4706,-73.0800
2.4711,-73.6903
2.4716,-70.6384
2.4721,-67.5865
2.4726,-70.6384
2.4731,-74.9111
2.4736,-73.3851
2.4741,-70.0280
2.4746,-72.4696
2.4751,-75.2163
2.4756,-65.7553
2.4761,-49.5800
2.4766,-46.8332
2.4771,-61.1774
2.4776,-74.9111
2.4781,-75.2163
2.4786,-69.4176
2.4791,-67.8916
2.4796,-67.8916
2.4801,-63.3137
2.4806,-58.1254
2.4811,-57.5150
2.4816,-57.5150
2.4821,-54.7683
2.4826,-50.4956
2.4831,-47.4436
2.4836,-43.4761
2.4841,-37.6774
2.4846,-32.4891
2.4851,-30.3527
2.4856,-28.5216
2.4861,-25.7748
2.4866,-23.0281
2.4871,-20.5865
2.4876,-15.7034
2.4881,-10.5151
2.4886,-8.6839
2.4891,-9.5995
2.4896,-8.3787
2.4901,-5.6320
2.4906,-4.4112
2.4911,-3.8008
2.4916,-0.1385
2.4921,4.4394
2.4926,5.0498
2.4931,1.9979
2.4936,0.1667
2.4941,-0.1385
2.4946,-1.3593
2.4951,-2.5800
2.4956,-0.7489
2.4961,1.6927
2.4966,0.1667
2.4971,-4.4112
2.4976,-7.7683
2.4981,-8.9891
2.4986,-11.4307
2.4991,-14.4826
2.4996,-14.7878
2.5001,-14.7878
2.5006,-18.4502
2.5011,-25.4696
2.5016,-30.3527
2.5021,-32.7943
2.5026,-36.4566
2.5031,-40.7293
2.5036,-42.5605
2.5041,-42.5605
2.5046,-45.6125
2.5051,-51.1060
2.5056,-55.6839
2.5061,-59.3462
2.5066,-63.3137
2.5071,-65.7553
2.5076,-64.8397
2.5081,-63.3137
2.5086,-65.7553
2.5091,-69.4176
2.5096,-69.7228
2.5101,-68.1968
2.5106,-68.8072
2.5111,-69.7228
2.5116,-66.3657
2.5121,-60.2618
2.5126,-57.2098
2.5131,-57.5150
2.5136,-56.5995
2.5141,-53.5475
2.5146,-51.4111
2.5151,-48.9696
2.5156,-42.5605
2.5161,-34.6255
2.5166,-30.3527
2.5171,-29.1320
2.5176,-25.7748
2.5181,-18.7553
2.5186,-12.6515
2.5191,-8.0735
2.5196,-1.6645
2.5201,5.3550
2.5206,10.2381
2.5211,13.2901
2.5216,17.5628
2.5221,22.7511
2.5226,26.4134
2.5231,28.8550
2.5236,34.0433
2.5241,40.4524
2.5246,43.5043
2.5251,43.8095
2.5256,44.7251
2.5261,45.9459
2.5266,45.0303
2.5271,45.0303
2.5276,48.9978
2.5281,53.2705
2.5286,51.7446
2.5291,46.5563
2.5296,45.3355
2.5301,47.4718
2.5306,46.8614
2.5310,43.5043
2.5315,43.5043
2.5320,46.2511
2.5325,44.7251
2.5330,38.9264
2.5335,36.1796
2.5340,37.7056
2.5345,37.7056
2.5350,34.9589
2.5355,36.4848
2.5360,41.6731
2.5365,41.3680
2.5370,33.7381
2.5375,31.2965
2.5380,41.6731
2.5385,53.5757
2.5390,52.9653
2.5395,41.6731
2.5400,32.8225
2.5405,31.9069
2.5410,32.8225
2.5415,30.9913
2.5420,28.2446
2.5425,27.3290
2.5430,27.3290
2.5435,27.3290
2.5440,26.7186
2.5445,24.5823
2.5450,20.9199
2.5455,16.9524
2.5460,13.9005
2.5465,11.7641
2.5470,10.8485
2.5475,10.8485
2.5480,11.1537
2.5485,9.0173
2.5490,5.9654
2.5495,3.2186
2.5500,1.6927
2.5505,0.7771
2.5510,1.0823
2.5515,3.2186
2.5520,4.1342
2.5525,1.3875
2.5530,-1.9697
2.5535,-2.5800
2.5540,-1.3593
2.5545,-1.9697
2.5550,-3.1904
2.5555,-1.3593
2.5560,1.0823
2.5565,-0.1385
2.5570,-5.0216
2.5575,-6.8528
2.5580,-5.6320
2.5585,-5.6320
2.5590,-8.0735
2.5595,-8.0735
2.5600,-5.9372
2.5605,-6.5476
2.5610,-11.4307
2.5615,-15.0930
2.5620,-15.0930
2.5625,-15.0930
2.5630,-16.9242
2.5635,-16.9242
2.5640,-14.1774
2.5645,-13.2618
2.5650,-16.9242
2.5655,-20.5865
2.5660,-22.1125
2.5665,-22.7229
2.5670,-23.9437
2.5675,-22.7229
2.5680,-18.4502
2.5685,-16.6190
2.5690,-19.6709
2.5695,-22.7229
2.5700,-22.1125
2.5705,-20.8917
2.5710,-21.5021
2.5715,-21.1969
2.5720,-17.8398
2.5725,-15.3982
2.5730,-16.9242
2.5735,-19.3657
2.5740,-19.3657
2.5745,-17.8398
2.5750,-17.5346
2.5755,-16.0086
2.5760,-11.7359
2.5765,-8.9891
2.5770,-11.1255
2.5775,-14.1774
2.5780,-14.4826
2.5785,-14.4826
2.5790,-16.0086
2.5795,-16.9242
2.5800,-14.1774
2.5805,-11.7359
2.5810,-13.2618
2.5815,-16.0086
2.5820,-15.7034
2.5825,-13.8722
2.5830,-14.1774
2.5835,-13.5670
2.5840,-9.5995
2.5845,-5.9372
2.5850,-6.5476
2.5855,-8.6839
2.5860,-8.6839
2.5865,-8.0735
2.5870,-8.3787
2.5875,-6.8528
2.5880,-1.3593
2.5885,2.3031
2.5890,1.0823
2.5895,-0.7489
2.5900,1.0823
2.5905,3.2186
2.5910,1.6927
2.5915,1.3875
2.5920,6.2706
2.5925,10.5433
2.5930,8.1018
2.5935,4.7446
2.5940,5.9654
2.5945,8.1018
2.5950,6.5758
2.5955,6.5758
2.5960,12.0693
2.5965,16.3420
2.5970,12.9849
2.5975,8.4070
2.5980,9.3225
2.5985,9.9329
2.5990,5.0498
2.5995,3.2186
2.6000,9.3225
2.6005,13.2901
2.6010,5.9654
2.6015,0.1667
2.6020,10.5433
2.6025,25.4978
2.6030,23.0563
2.6035,6.2706
2.6040,-1.6645
2.6045,4.7446
2.6050,10.5433
2.6055,6.2706
2.6060,0.7771
2.6065,0.7771
2.6070,2.3031
2.6075,1.3875
2.6080,1.6927
2.6085,3.5238
2.6090,2.3031
2.6095,-1.9697
2.6100,-4.1060
2.6105,-3.4956
2.6110,-4.4112
2.6115,-6.5476
2.6120,-5.9372
2.6125,-3.8008
2.6130,-5.3268
2.6135,-8.6839
2.6140,-9.2943
2.6145,-6.8528
2.6150,-5.9372
2.6155,-6.2424
2.6160,-4.4112
2.6165,-1.9697
2.6170,-3.4956
2.6175,-6.2424
2.6180,-5.9372
2.6185,-3.4956
2.6190,-2.8852
2.6195,-2.8852
2.6200,0.4719
2.6205,6.2706
2.6210,9.0173
2.6215,9.9329
2.6220,12.6797
2.6225,16.6472
2.6230,18.4784
2.6235,18.7836
2.6240,21.2251
2.6245,24.5823
2.6250,25.8030
2.6255,24.8875
2.6260,24.5823
2.6265,24.2771
2.6270,24.5823
2.6275,27.0238
2.6280,31.2965
2.6285,32.5173
2.6290,29.4654
2.6295,26.7186
2.6300,27.9394
2.6305,31.2965
2.6310,33.4329
2.6315,36.4848
2.6320,41.6731
2.6325,46.2511
2.6330,48.0822
2.6335,48.9978
2.6340,51.4394
2.6345,54.4913
2.6350,57.8484
2.6355,63.3419
2.6360,70.3614
2.6365,74.9393
2.6370,75.2445
2.6375,76.7705
2.6380,81.3484
2.6385,86.2315
2.6390,89.2835
2.6395,92.9458
2.6400,98.4393
2.6405,101.4912
2.6410,100.2705
2.6415,98.7445
2.6420,99.9653
2.6425,101.4912
2.6430,101.4912
2.6435,103.0172
2.6440,107.2899
2.6445,109.1211
2.6450,106.0692
2.6455,100.8809
2.6460,97.8289
2.6465,94.7770
2.6470,91.7250
2.6475,90.8094
2.6480,91.7250
2.6485,89.5887
2.6490,82.2640
2.6495,75.5497
2.6500,72.4978
2.6505,70.3614
2.6510,65.4783
2.6515,61.5108
2.6520,59.9848
2.6525,56.3225
2.6530,47.7770
2.6535,38.9264
2.6540,34.9589
2.6545,32.8225
2.6550,28.8550
2.6555,25.8030
2.6560,26.1082
2.6565,26.4134
2.6570,22.7511
2.6575,18.4784
2.6580,17.5628
2.6585,18.1732
2.6590,17.2576
2.6595,16.9524
2.6600,19.6991
2.6605,20.3095
2.6610,16.0368
2.6615,11.4589
2.6620,11.1537
2.6625,10.8485
2.6630,6.8810
2.6635,3.5238
2.6640,6.8810
2.6645,9.3225
2.6650,2.3031
2.6655,-7.1580
2.6660,-7.1580
2.6665,1.6927
2.6670,5.0498
2.6675,-4.4112
2.6680,-18.4502
2.6685,-25.7748
2.6690,-27.3008
2.6695,-29.7423
2.6700,-34.3203
2.6705,-37.0670
2.6710,-37.6774
2.6715,-36.7618
2.6720,-37.3722
2.6725,-39.5086
2.6730,-43.1709
2.6735,-46.5280
2.6740,-48.0540
2.6745,-48.6644
2.6750,-48.9696
2.6755,-49.5800
2.6760,-50.8008
2.6765,-52.6319
2.6770,-55.6839
2.6775,-58.4306
2.6780,-60.8722
2.6785,-62.0930
2.6790,-61.7878
2.6795,-59.9566
2.6800,-58.7358
2.6805,-60.8722
2.6810,-64.5345
2.6815,-66.0605
2.6820,-66.3657
2.6825,-67.2813
2.6830,-68.8072
2.6835,-67.2813
2.6840,-63.9241
2.6845,-63.3137
2.6850,-66.3657
2.6855,-70.6384
2.6860,-73.0800
2.6865,-74.6059
2.6870,-75.5215
2.6875,-75.5215
2.6880,-75.5215
2.6885,-77.0475
2.6890,-79.1838
2.6895,-81.0150
2.6900,-84.0670
2.6905,-88.9501
2.6910,-91.6968
2.6915,-89.5605
2.6920,-87.1189
2.6925,-88.6449
2.6930,-92.0020
2.6935,-92.9176
2.6940,-92.6124
2.6945,-95.6643
2.6950,-99.9371
2.6955,-100.2423
2.6960,-99.3267
2.6965,-102.3786
2.6970,-107.8721
2.6975,-110.3137
2.6980,-109.3981
2.6985,-110.9241
2.6990,-114.2812
2.6995,-115.1968
2.7000,-114.2812
2.7005,-115.8072
2.7010,-120.0799
2.7015,-121.3007
2.7020,-119.4695
2.7025,-118.2487
2.7030,-117.3331
2.7035,-111.8396
2.7040,-103.2942
2.7045,-96.8851
2.7050,-93.5280
2.7055,-88.3397
2.7060,-80.7098
2.7065,-74.9111
2.7070,-70.3332
2.7075,-62.7033
2.7080,-52.6319
2.7085,-46.5280
2.7090,-44.0865
2.7095,-39.5086
2.7100,-32.1839
2.7105,-27.3008
2.7110,-26.0800
2.7115,-23.0281
2.7120,-15.7034
2.7125,-9.2943
2.7130,-7.7683
2.7135,-7.1580
2.7140,-5.6320
2.7145,-3.4956
2.7150,-0.4437
2.7155,5.0498
2.7160,9.9329
2.7165,10.5433
2.7170,9.0173
2.7175,11.1537
2.7180,16.0368
2.7185,17.8680
2.7190,18.7836
2.7195,23.9719
2.7200,30.9913
2.7205,32.5173
2.7210,28.8550
2.7215,28.8550
2.7220,33.7381
2.7225,36.1796
2.7230,35.5693
2.7235,38.9264
2.7240,46.5563
2.7245,49.3030
2.7250,45.0303
2.7255,41.9783
2.7260,42.8939
2.7265,42.8939
2.7270,40.7576
2.7275,42.5887
2.7280,46.8614
2.7285,44.4199
2.7290,36.1796
2.7295,36.1796
2.7300,49.3030
2.7305,59.6796
2.7310,53.2705
2.7315,38.0108
2.7320,30.9913
2.7325,32.8225
2.7330,34.0433
2.7335,30.9913
2.7340,28.5498
2.7345,29.4654
2.7350,30.9913
2.7355,31.6017
2.7360,31.6017
2.7365,30.3810
2.7370,27.9394
2.7375,27.3290
2.7380,28.5498
2.7385,28.8550
2.7390,26.7186
2.7395,26.7186
2.7400,29.4654
2.7405,29.7706
2.7410,24.8875
2.7415,19.6991
2.7420,19.3940
2.7425,20.3095
2.7430,19.0888
2.7435,17.8680
2.7440,19.3940
2.7445,20.9199
2.7450,19.3940
2.7455,15.7316
2.7460,13.5953
2.7465,12.0693
2.7470,10.5433
2.7475,10.5433
2.7480,12.9849
2.7485,14.2056
2.7490,11.7641
2.7495,8.4070
2.7500,7.4914
2.7505,7.4914
2.7510,6.5758
2.7515,6.5758
2.7520,9.0173
2.7525,10.5433
2.7530,9.0173
2.7535,7.1862
2.7540,7.4914
2.7545,8.1018
2.7550,7.4914
2.7555,8.1018
2.7560,11.4589
2.7565,14.2056
2.7570,12.6797
2.7575,10.8485
2.7580,11.4589
2.7585,12.6797
2.7590,12.0693
2.7595,12.6797
2.7600,16.9524
2.7605,21.5303
2.7610,20.3095
2.7615,16.0368
2.7620,13.9005
2.7625,14.2056
2.7630,13.2901
2.7635,12.0693
2.7640,13.9005
2.7645,17.2576
2.7650,17.2576
2.7655,14.2056
2.7660,11.4589
2.7665,10.5433
2.7670,10.5433
2.7675,10.8485
2.7680,12.3745
2.7685,12.6797
2.7690,10.2381
2.7695,7.7966
2.7700,7.4914
2.7705,7.7966
2.7710,6.5758
2.7715,5.9654
2.7720,8.4070
2.7725,9.3225
2.7730,5.6602
2.7735,1.0823
2.7740,-0.7489
2.7745,-2.2748
2.7750,-5.9372
2.7755,-8.3787
2.7760,-6.8528
2.7765,-5.6320
2.7770,-8.6839
2.7775,-13.2618
2.7780,-14.4826
2.7785,-14.4826
2.7790,-16.9242
2.7795,-19.0605
2.7800,-16.9242
2.7805,-14.4826
2.7810,-16.3138
2.7815,-19.3657
2.7820,-18.7553
2.7825,-15.7034
2.7830,-14.1774
2.7835,-12.3463
2.7840,-6.2424
2.7845,0.4719
2.7850,3.8290
2.7855,5.0498
2.7860,7.1862
2.7865,9.9329
2.7870,12.3745
2.7875,17.5628
2.7880,25.4978
2.7885,30.9913
2.7890,31.2965
2.7895,32.5173
2.7900,37.7056
2.7905,41.3680
2.7910,41.0628
2.7915,44.1147
2.7920,52.3549
2.7925,56.6277
2.7930,51.4394
2.7935,49.3030
2.7940,60.5952
2.7945,73.7186
2.7950,70.6666
2.7955,56.6277
2.7960,49.9134
2.7965,54.1861
2.7970,56.9329
2.7975,53.2705
2.7980,50.2186
2.7985,52.0498
2.7990,53.5757
2.7995,52.9653
2.8000,53.5757
2.8005,55.7121
2.8010,54.4913
2.8015,50.2186
2.8020,48.6926
2.8025,50.2186
2.8030,50.5238
2.8035,49.6082
2.8040,50.5238
2.8045,52.6601
2.8050,51.4394
2.8055,48.0822
2.8060,46.5563
2.8065,47.4718
2.8070,47.7770
2.8075,47.4718
2.8080,48.0822
2.8085,48.0822
2.8090,45.6407
2.8095,42.5887
2.8100,41.6731
2.8105,41.0628
2.8110,38.3160
2.8115,36.4848
2.8120,37.0952
2.8125,37.7056
2.8130,34.3485
2.8135,29.4654
2.8140,27.0238
2.8145,26.1082
2.8150,24.8875
2.8155,24.2771
2.8160,25.4978
2.8165,24.8875
2.8170,20.9199
2.8175,16.6472
2.8180,16.0368
2.8185,16.9524
2.8190,16.6472
2.8195,16.6472
2.8200,18.1732
2.8205,18.1732
2.8210,15.7316
2.8215,13.5953
2.8220,13.9005
2.8225,14.8160
2.8230,13.9005
2.8235,13.9005
2.8240,16.3420
2.8245,17.8680
2.8250,15.4264
2.8255,10.8485
2.8260,7.4914
2.8265,5.9654
2.8270,5.0498
2.8275,5.0498
2.8280,5.6602
2.8285,4.7446
2.8290,1.6927
2.8295,-0.1385
2.8300,-1.3593
2.8305,-2.8852
2.8310,-4.7164
2.8315,-4.7164
2.8320,-4.4112
2.8325,-6.8528
2.8330,-11.7359
2.8335,-15.3982
2.8340,-16.3138
2.8345,-16.9242
2.8350,-17.8398
2.8355,-17.5346
2.8360,-16.9242
2.8365,-18.4502
2.8370,-21.8073
2.8375,-23.6385
2.8380,-23.9437
2.8385,-24.8592
2.8390,-26.0800
2.8395,-24.8592
2.8400,-23.0281
2.8405,-24.5540
2.8410,-29.7423
2.8415,-34.3203
2.8420,-35.8462
2.8425,-37.3722
2.8430,-40.7293
2.8435,-43.4761
2.8440,-45.6125
2.8445,-48.9696
2.8450,-54.1579
2.8455,-58.7358
2.8460,-61.7878
2.8465,-65.1449
2.8470,-67.5865
2.8475,-67.2813
2.8480,-65.4501
2.8485,-66.0605
2.8490,-69.4176
2.8495,-71.5540
2.8500,-70.0280
2.8505,-68.5020
2.8510,-68.5020
2.8515,-67.5865
2.8520,-64.8397
2.8525,-63.6189
2.8530,-65.4501
2.8535,-65.7553
2.8540,-61.1774
2.8545,-55.9891
2.8550,-54.4631
2.8555,-52.9371
2.8560,-47.4436
2.8565,-42.2553
2.8570,-43.7813
2.8575,-47.1384
2.8580,-40.7293
2.8585,-24.2488
2.8590,-10.8203
2.8595,-12.9567
2.8600,-23.9437
2.8605,-29.1320
2.8610,-23.9437
2.8615,-16.6190
2.8620,-14.4826
2.8625,-14.1774
2.8630,-9.9047
2.8635,-2.5800
2.8640,2.3031
2.8645,4.1342
2.8650,5.3550
2.8655,7.1862
2.8660,8.1018
2.8665,9.0173
2.8670,12.3745
2.8675,17.8680
2.8680,21.8355
2.8685,22.7511
2.8690,23.6667
2.8695,26.4134
2.8700,28.8550
2.8705,30.3810
2.8710,32.8225
2.8715,37.0952
2.8720,40.7576
2.8725,41.3680
2.8730,41.3680
2.8735,42.5887
2.8740,42.5887
2.8745,41.3680
2.8750,41.9783
2.8755,45.0303
2.8760,46.8614
2.8765,44.7251
2.8770,40.4524
2.8775,38.3160
2.8780,36.7900
2.8785,34.3485
2.8790,33.1277
2.8795,34.3485
2.8800,34.0433
2.8805,30.0758
2.8810,25.4978
2.8815,23.6667
2.8820,23.0563
2.8825,20.6147
2.8830,19.0888
2.8835,20.6147
2.8840,21.8355
2.8845,19.0888
2.8850,15.1212
2.8855,12.9849
2.8860,11.1537
2.8865,7.4914
2.8870,5.0498
2.8875,6.5758
2.8880,7.1862
2.8885,3.2186
2.8890,-1.9697
2.8895,-4.4112
2.8900,-6.2424
2.8905,-11.4307
2.8910,-16.6190
2.8915,-17.2294
2.8920,-17.5346
2.8925,-23.0281
2.8930,-31.2683
2.8935,-36.7618
2.8940,-40.4242
2.8945,-45.6125
2.8950,-50.1904
2.8955,-50.4956
2.8960,-50.8008
2.8965,-56.5995
2.8970,-65.4501
2.8975,-70.0280
2.8980,-70.9436
2.8985,-73.0800
2.8990,-75.8267
2.8995,-75.2163
2.9000,-73.6903
2.9005,-75.5215
2.9010,-78.5735
2.9015,-77.9631
2.9020,-74.3007
2.9025,-72.7748
2.9030,-72.1644
2.9035,-66.9761
2.9040,-59.6514
2.9045,-56.9046
2.9050,-58.7358
2.9055,-58.4306
2.9060,-54.4631
2.9065,-49.8852
2.9070,-45.9177
2.9075,-40.1190
2.9080,-34.0151
2.9085,-31.5735
2.9090,-31.8787
2.9095,-29.4372
2.9100,-24.5540
2.9105,-21.8073
2.9110,-20.5865
2.9115,-16.0086
2.9120,-9.9047
2.9125,-8.3787
2.9130,-10.8203
2.9135,-10.5151
2.9140,-6.5476
2.9145,-4.1060
2.9150,-4.4112
2.9155,-1.9697
2.9160,3.2186
2.9165,4.4394
2.9170,1.3875
2.9175,1.0823
2.9180,5.9654
2.9185,8.7121
2.9190,6.8810
2.9195,8.1018
2.9200,14.2056
2.9205,16.0368
2.9210,10.2381
2.9215,9.6277
2.9220,22.4459
2.9225,36.7900
2.9230,36.4848
2.9235,24.5823
2.9240,16.6472
2.9245,16.9524
2.9250,18.4784
2.9255,16.3420
2.9260,14.5108
2.9265,13.9005
2.9270,13.9005
2.9275,13.9005
2.9280,16.0368
2.9285,16.9524
2.9290,15.1212
2.9295,12.6797
2.9300,13.2901
2.9305,13.5953
2.9310,11.4589
2.9315,10.5433
2.9320,13.9005
2.9325,16.6472
2.9330,12.9849
2.9335,7.1862
2.9340,6.2706
2.9345,7.1862
2.9350,5.3550
2.9355,4.1342
2.9360,8.1018
2.9365,12.6797
2.9370,10.5433
2.9375,5.6602
2.9380,5.3550
2.9385,7.7966
2.9390,7.4914
2.9395,7.1862
2.9400,11.1537
2.9405,16.0368
2.9410,14.5108
2.9415,9.3225
2.9420,8.4070
2.9425,11.4589
2.9430,11.4589
2.9435,9.6277
2.9440,11.7641
2.9445,16.9524
2.9450,17.2576
2.9455,11.7641
2.9460,6.2706
2.9465,4.7446
2.9470,4.4394
2.9475,5.0498
2.9480,6.8810
2.9485,7.7966
2.9490,5.0498
2.9495,1.9979
2.9500,1.9979
2.9505,3.5238
2.9510,3.5238
2.9515,3.2186
2.9520,5.6602
2.9525,8.4070
2.9530,7.4914
2.9535,4.7446
2.9540,4.4394
2.9545,6.2706
2.9550,6.5758
2.9555,7.1862
2.9560,9.6277
2.9565,11.4589
2.9570,10.2381
2.9575,8.1018
2.9580,8.4070
2.9585,10.5433
2.9590,10.8485
2.9595,10.8485
2.9600,12.6797
2.9605,14.5108
2.9610,12.9849
2.9615,10.2381
2.9620,9.6277
2.9625,9.9329
2.9630,9.3225
2.9635,9.6277
2.9640,11.7641
2.9645,13.2901
2.9650,11.1537
2.9655,8.1018
2.9660,6.5758
2.9665,5.9654
2.9670,5.0498
2.9675,5.3550
2.9680,7.7966
2.9685,9.0173
2.9690,7.4914
2.9695,5.6602
2.9700,5.6602
2.9705,5.0498
2.9710,3.5238
2.9715,3.8290
2.9720,7.4914
2.9725,9.0173
2.9730,6.5758
2.9735,4.1342
2.9740,5.0498
2.9745,6.2706
2.9750,5.3550
2.9755,5.0498
2.9760,7.1862
2.9765,8.1018
2.9770,5.3550
2.9775,1.6927
2.9780,0.1667
2.9785,-0.7489
2.9790,-2.2748
2.9795,-2.2748
2.9800,-0.4437
2.9805,-0.7489
2.9810,-4.4112
2.9815,-7.4632
2.9820,-8.0735
2.9825,-8.9891
2.9830,-10.8203
2.9835,-10.5151
2.9840,-8.0735
2.9845,-7.4632
2.9850,-9.2943
2.9855,-10.5151
2.9860,-11.4307
2.9865,-14.1774
2.9870,-16.3138
2.9875,-13.8722
2.9880,-9.9047
2.9885,-10.5151
2.9890,-13.8722
2.9895,-13.2618
2.9900,-11.1255
2.9905,-13.8722
2.9910,-16.9242
2.9915,-7.4632
2.9920,9.0173
2.9925,13.5953
2.9930,-0.4437
2.9935,-16.6190
2.9940,-19.3657
2.9945,-15.0930
2.9950,-14.7878
2.9955,-16.6190
2.9960,-14.7878
2.9965,-13.2618
2.9970,-16.6190
2.9975,-21.5021
2.9980,-21.1969
2.9985,-19.3657
2.9990,-19.6709
2.9995,-19.9761
3.0000,-17.2294
3.0005,-16.0086
3.0010,-19.0605
3.0015,-21.5021
3.0020,-19.6709
3.0025,-17.8398
3.0030,-18.7553
3.0035,-17.8398
3.0040,-12.9567
3.0045,-8.9891
3.0050,-10.2099
3.0055,-12.6515
3.0060,-12.6515
3.0065,-11.7359
3.0070,-11.4307
3.0075,-8.9891
3.0080,-3.8008
3.0085,-1.3593
3.0090,-3.8008
3.0095,-6.5476
3.0100,-6.2424
3.0105,-5.3268
3.0110,-5.3268
3.0115,-3.8008
3.0120,-0.1385
3.0125,0.7771
3.0130,-1.9697
3.0135,-4.1060
3.0140,-3.4956
3.0145,-2.8852
3.0150,-2.8852
3.0155,-1.3593
3.0160,1.9979
3.0165,3.2186
3.0170,1.3875
3.0175,0.4719
3.0180,1.3875
3.0185,2.3031
3.0190,2.9135
3.0195,6.2706
3.0200,10.5433
3.0205,10.8485
3.0210,8.7121
3.0215,9.0173
3.0220,12.0693
3.0225,13.5953
3.0230,13.2901
3.0235,16.0368
3.0240,20.9199
3.0245,23.3615
3.0250,21.5303
3.0255,19.6991
3.0260,19.6991
3.0265,19.0888
3.0270,18.7836
3.0275,21.5303
3.0280,24.8875
3.0285,23.9719
3.0290,20.0043
3.0295,18.7836
3.0300,20.0043
3.0305,19.6991
3.0310,18.4784
3.0315,20.3095
3.0320,23.6667
3.0325,23.3615
3.0330,20.0043
3.0335,18.7836
3.0340,20.3095
3.0345,20.0043
3.0350,19.3940
3.0355,22.4459
3.0360,26.7186
3.0365,26.4134
3.0370,22.4459
3.0375,20.9199
3.0380,22.7511
3.0385,23.6667
3.0390,23.3615
3.0395,25.1926
3.0400,28.2446
3.0405,27.6342
3.0410,24.5823
3.0415,23.6667
3.0420,24.5823
3.0425,23.6667
3.0430,22.7511
3.0435,25.4978
3.0440,28.8550
3.0445,27.3290
3.0450,21.8355
3.0455,18.1732
3.0460,16.6472
3.0465,13.9005
3.0470,11.7641
3.0475,13.9005
3.0480,15.1212
3.0485,11.1537
3.0490,7.1862
3.0495,8.7121
3.0500,9.3225
3.0505,3.8290
3.0510,1.0823
3.0515,12.6797
3.0520,27.6342
3.0525,25.1926
3.0530,6.5758
3.0535,-6.5476
3.0540,-5.3268
3.0545,-1.0541
3.0550,-3.1904
3.0555,-5.3268
3.0560,-2.5800
3.0565,-1.6645
3.0570,-5.9372
3.0575,-9.2943
3.0580,-8.0735
3.0585,-6.8528
3.0590,-8.6839
3.0595,-8.0735
3.0600,-4.4112
3.0605,-4.1060
3.0610,-8.6839
3.0615,-11.7359
3.0620,-9.2943
3.0625,-7.1580
3.0630,-8.0735
3.0635,-7.7683
3.0640,-4.1060
3.0645,-2.5800
3.0650,-5.3268
3.0655,-7.7683
3.0660,-6.5476
3.0665,-5.0216
3.0670,-4.7164
3.0675,-3.1904
3.0680,-0.1385
3.0685,0.7771
3.0690,-0.7489
3.0695,-1.3593
3.0700,0.7771
3.0705,2.9135
3.0710,4.4394
3.0715,6.8810
3.0720,9.3225
3.0725,8.4070
3.0730,5.6602
3.0735,5.9654
3.0740,8.4070
3.0745,8.7121
3.0750,7.4914
3.0755,9.0173
3.0760,13.2901
3.0765,15.1212
3.0770,14.2056
3.0775,13.9005
3.0780,15.4264
3.0785,15.7316
3.0790,15.7316
3.0795,19.0888
3.0800,23.3615
3.0805,23.0563
3.0810,18.7836
3.0815,16.9524
3.0820,19.0888
3.0825,20.6147
3.0830,21.2251
3.0835,24.2771
3.0840,28.5498
3.0845,29.4654
3.0850,26.7186
3.0855,24.8875
3.0860,25.8030
3.0865,26.4134
3.0870,27.3290
3.0875,30.3810
3.0880,33.7381
3.0885,33.1277
3.0890,30.3810
3.0895,30.3810
3.0900,32.5173
3.0905,32.2121
3.0910,30.0758
3.0915,31.2965
3.0920,33.7381
3.0925,32.2121
3.0930,27.0238
3.0934,24.5823
3.0939,25.4978
3.0944,24.2771
3.0949,20.0043
3.0954,19.6991
3.0959,22.4459
3.0964,20.9199
3.0969,12.6797
3.0974,6.2706
3.0979,6.5758
3.0984,7.1862
3.0989,3.8290
3.0994,1.0823
3.0999,3.2186
3.1004,5.0498
3.1009,0.7771
3.1014,-4.7164
3.1019,-5.6320
3.1024,-4.1060
3.1029,-6.8528
3.1034,-9.9047
3.1039,-8.0735
3.1044,-3.1904
3.1049,-3.1904
3.1054,-8.0735
3.1059,-12.0411
3.1064,-12.9567
3.1069,-14.4826
3.1074,-15.3982
3.1079,-14.1774
3.1084,-12.6515
3.1089,-15.0930
3.1094,-18.4502
3.1099,-19.0605
3.1104,-19.6709
3.1109,-23.6385
3.1114,-26.9956
3.1119,-24.2488
3.1124,-20.8917
3.1129,-26.3852
3.1134,-35.8462
3.1139,-34.9307
3.1144,-23.0281
3.1149,-15.3982
3.1154,-20.5865
3.1159,-31.2683
3.1164,-36.7618
3.1169,-37.9826
3.1174,-39.5086
3.1179,-41.6449
3.1184,-42.2553
3.1189,-41.9501
3.1194,-41.0345
3.1199,-37.6774
3.1204,-34.3203
3.1209,-34.9307
3.1214,-38.8982
3.1219,-40.7293
3.1224,-39.5086
3.1229,-38.8982
3.1234,-38.8982
3.1239,-35.5410
3.1244,-30.3527
3.1249,-28.8268
3.1254,-33.0995
3.1259,-37.3722
3.1264,-37.6774
3.1269,-36.1514
3.1274,-35.2358
3.1279,-34.3203
3.1284,-33.4047
3.1289,-33.7099
3.1294,-35.2358
3.1299,-37.0670
3.1304,-38.2878
3.1309,-38.8982
3.1314,-37.9826
3.1319,-35.2358
3.1324,-34.0151
3.1329,-35.8462
3.1334,-38.2878
3.1339,-37.6774
3.1344,-36.1514
3.1349,-36.1514
3.1354,-36.1514
3.1359,-33.4047
3.1364,-30.6579
3.1369,-31.2683
3.1374,-32.7943
3.1379,-32.1839
3.1384,-30.0475
3.1389,-28.8268
3.1394,-26.9956
3.1399,-23.9437
3.1404,-22.4177
3.1409,-23.6385
3.1414,-24.8592
3.1419,-23.3333
3.1424,-21.5021
3.1429,-21.5021
3.1434,-20.8917
3.1439,-17.8398
3.1444,-14.7878
3.1449,-15.7034
3.1454,-18.4502
3.1459,-19.6709
3.1464,-20.8917
3.1469,-22.7229
3.1474,-22.4177
3.1479,-19.3657
3.1484,-17.2294
3.1489,-18.4502
3.1494,-20.5865
3.1499,-20.5865
3.1504,-19.6709
3.1509,-18.7553
3.1514,-16.6190
3.1519,-12.6515
3.1524,-11.1255
3.1529,-13.2618
3.1534,-13.8722
3.1539,-11.4307
3.1544,-8.9891
3.1549,-8.3787
3.1554,-6.5476
3.1559,-1.0541
3.1564,2.3031
3.1569,1.0823
3.1574,-0.4437
3.1579,0.4719
3.1584,2.9135
3.1589,3.8290
3.1594,5.3550
3.1599,9.6277
3.1604,12.0693
3.1609,9.6277
3.1614,7.1862
3.1619,8.7121
3.1624,11.4589
3.1629,11.4589
3.1634,11.1537
3.1639,14.2056
3.1644,18.4784
3.1649,18.7836
3.1654,15.7316
3.1659,14.5108
3.1664,15.1212
3.1669,16.0368
3.1674,18.1732
3.1679,21.2251
3.1684,22.7511
3.1689,21.2251
3.1694,20.0043
3.1699,21.8355
3.1704,23.6667
3.1709,23.3615
3.1714,24.2771
3.1719,28.2446
3.1724,31.2965
3.1729,30.0758
3.1734,28.2446
3.1739,30.3810
3.1744,32.8225
3.1749,32.5173
3.1754,32.8225
3.1759,36.4848
3.1764,39.2316
3.1769,36.7900
3.1774,33.1277
3.1779,33.4329
3.1784,34.6537
3.1789,32.2121
3.1794,30.6861
3.1799,34.6537
3.1804,38.0108
3.1809,32.8225
3.1814,25.8030
3.1819,29.7706
3.1824,42.5887
3.1829,48.0822
3.1834,39.8420
3.1839,29.1602
3.1844,27.0238
3.1849,29.1602
3.1854,27.9394
3.1859,23.6667
3.1864,21.8355
3.1869,23.3615
3.1874,26.1082
3.1879,27.3290
3.1884,27.0238
3.1889,25.8030
3.1894,24.5823
3.1899,23.9719
3.1904,23.9719
3.1909,25.1926
3.1914,27.0238
3.1919,28.8550
3.1924,27.9394
3.1929,24.8875
3.1934,22.4459
3.1939,21.5303
3.1944,19.6991
3.1949,18.1732
3.1954,19.0888
3.1959,21.2251
3.1964,20.0043
3.1969,14.5108
3.1974,9.9329
3.1979,9.0173
3.1984,8.7121
3.1989,6.8810
3.1994,6.2706
3.1999,7.7966
3.2004,8.1018
3.2009,4.7446
3.2014,1.3875
3.2019,1.0823
3.2024,1.6927
3.2029,1.3875
3.2034,2.3031
3.2039,5.9654
3.2044,7.7966
3.2049,5.6602
3.2054,2.3031
3.2059,1.0823
3.2064,1.6927
3.2069,2.6083
3.2074,4.1342
3.2079,5.6602
3.2084,5.6602
3.2089,3.8290
3.2094,1.9979
3.2099,1.3875
3.2104,0.1667
3.2109,-1.0541
3.2114,-0.4437
3.2119,1.0823
3.2124,0.4719
3.2129,-2.5800
3.2134,-5.6320
3.2139,-6.5476
3.2144,-7.1580
3.2149,-7.4632
3.2154,-6.2424
3.2159,-4.1060
3.2164,-5.3268
3.2169,-8.6839
3.2174,-9.9047
3.2179,-8.3787
3.2184,-7.7683
3.2189,-8.3787
3.2194,-7.1580
3.2199,-4.1060
3.2204,-4.1060
3.2209,-6.5476
3.2214,-7.1580
3.2219,-5.0216
3.2224,-3.4956
3.2229,-3.4956
3.2234,-1.3593
3.2239,2.6083
3.2244,4.4394
3.2249,2.3031
3.2254,-0.4437
3.2259,-2.2748
3.2264,-3.4956
3.2269,-3.8008
3.2274,-2.2748
3.2279,-1.3593
3.2284,-4.1060
3.2289,-7.7683
3.2294,-9.5995
3.2299,-10.2099
3.2304,-12.6515
3.2309,-14.1774
3.2314,-12.0411
3.2319,-9.5995
3.2324,-11.7359
3.2329,-16.9242
3.2334,-19.3657
3.2339,-19.6709
3.2344,-20.5865
3.2349,-21.8073
3.2354,-20.8917
3.2359,-21.5021
3.2364,-27.6060
3.2369,-36.1514
3.2374,-40.7293
3.2379,-43.4761
3.2384,-47.7488
3.2389,-50.4956
3.2394,-49.2748
3.2399,-49.5800
3.2404,-56.2943
3.2409,-63.3137
3.2414,-64.2293
3.2419,-65.4501
3.2424,-71.8592
3.2429,-73.6903
3.2434,-62.3981
3.2439,-49.5800
3.2444,-55.0735
3.2449,-75.5215
3.2454,-89.8656
3.2459,-88.6449
3.2464,-83.1514
3.2469,-82.5410
3.2474,-81.6254
3.2479,-77.0475
3.2484,-74.9111
3.2489,-76.4371
3.2494,-75.2163
3.2499,-68.8072
3.2504,-62.0930
3.2509,-58.4306
3.2514,-52.9371
3.2519,-44.6969
3.2524,-38.5930
3.2529,-35.8462
3.2534,-30.3527
3.2539,-20.5865
3.2544,-11.1255
3.2549,-4.4112
3.2554,3.8290
3.2559,14.2056
3.2564,20.9199
3.2569,23.3615
3.2574,27.6342
3.2579,35.2641
3.2584,41.9783
3.2589,44.7251
3.2594,47.7770
3.2599,54.4913
3.2604,60.2900
3.2609,61.5108
3.2614,61.2056
3.2619,62.4264
3.2624,64.2575
3.2629,66.0887
3.2634,70.0562
3.2639,75.5497
3.2644,78.6017
3.2649,76.4653
3.2654,72.8030
3.2659,71.2770
3.2664,71.8874
3.2669,73.7186
3.2674,76.4653
3.2679,78.6017
3.2684,77.9913
3.2689,76.4653
3.2694,75.5497
3.2699,74.6341
3.2704,72.1926
3.2709,70.9718
3.2714,73.7186
3.2719,76.4653
3.2724,74.6341
3.2729,70.3614
3.2734,68.2251
3.2739,68.2251
3.2744,66.6991
3.2749,64.5627
3.2754,65.4783
3.2759,67.3095
3.2764,64.5627
3.2769,58.1536
3.2774,55.1017
3.2779,55.4069
3.2784,53.2705
3.2789,48.0822
3.2794,45.3355
3.2799,47.1666
3.2804,46.8614
3.2809,41.3680
3.2814,35.5693
3.2819,34.3485
3.2824,33.4329
3.2829,30.3810
3.2834,27.6342
3.2839,28.2446
3.2844,29.1602
3.2849,26.1082
3.2854,21.8355
3.2859,19.0888
3.2864,17.5628
3.2869,14.8160
3.2874,13.9005
3.2879,15.7316
3.2884,16.6472
3.2889,13.5953
3.2894,9.3225
3.2899,7.1862
3.2904,5.9654
3.2909,4.4394
3.2914,3.8290
3.2919,4.7446
3.2924,4.7446
3.2929,1.6927
3.2934,-1.6645
3.2939,-3.8008
3.2944,-5.9372
3.2949,-8.0735
3.2954,-9.2943
3.2959,-8.6839
3.2964,-9.2943
3.2969,-12.0411
3.2974,-15.3982
3.2979,-17.8398
3.2984,-19.6709
3.2989,-20.5865
3.2994,-19.3657
3.2999,-17.8398
3.3004,-19.0605
3.3009,-22.7229
3.3014,-25.1644
3.3019,-25.4696
3.3024,-26.3852
3.3029,-26.6904
3.3034,-24.8592
3.3039,-23.0281
3.3044,-22.7229
3.3049,-22.1125
3.3054,-20.5865
3.3059,-22.4177
3.3064,-27.9112
3.3069,-26.9956
3.3074,-13.8722
3.3079,-1.3593
3.3084,-6.5476
3.3089,-23.9437
3.3094,-34.0151
3.3099,-30.6579
3.3104,-26.6904
3.3109,-29.7423
3.3114,-31.5735
3.3119,-27.9112
3.3124,-25.4696
3.3129,-29.7423
3.3134,-34.0151
3.3139,-32.7943
3.3144,-31.5735
3.3149,-34.0151
3.3154,-34.9307
3.3159,-31.5735
3.3164,-29.1320
3.3169,-31.8787
3.3174,-35.2358
3.3179,-34.9307
3.3184,-34.0151
3.3189,-34.9307
3.3194,-34.3203
3.3199,-30.6579
3.3204,-28.5216
3.3209,-31.2683
3.3214,-33.0995
3.3219,-30.6579
3.3224,-28.2164
3.3229,-29.4372
3.3234,-30.0475
3.3239,-25.4696
3.3244,-20.5865
3.3249,-20.8917
3.3254,-24.2488
3.3259,-26.3852
3.3264,-26.6904
3.3269,-26.6904
3.3274,-25.4696
3.3279,-23.0281
3.3284,-22.4177
3.3289,-23.9437
3.3294,-24.5540
3.3299,-23.6385
3.3304,-24.8592
3.3309,-28.2164
3.3314,-28.2164
3.3319,-24.5540
3.3324,-23.0281
3.3329,-26.0800
3.3334,-29.1320
3.3339,-27.9112
3.3344,-26.0800
3.3349,-27.3008
3.3354,-27.3008
3.3359,-23.3333
3.3364,-20.5865
3.3369,-22.7229
3.3374,-25.7748
3.3379,-24.5540
3.3384,-21.8073
3.3389,-21.1969
3.3394,-20.2813
3.3399,-16.9242
3.3404,-13.8722
3.3409,-15.0930
3.3414,-17.2294
3.3419,-16.3138
3.3424,-14.4826
3.3429,-14.7878
3.3434,-14.4826
3.3439,-10.2099
3.3444,-6.2424
3.3449,-7.1580
3.3454,-11.7359
3.3459,-14.7878
3.3464,-15.3982
3.3469,-15.0930
3.3474,-14.4826
3.3479,-12.9567
3.3484,-12.6515
3.3489,-14.4826
3.3494,-16.0086
3.3499,-14.7878
3.3504,-13.5670
3.3509,-13.8722
3.3514,-13.5670
3.3519,-10.5151
3.3524,-8.6839
3.3529,-9.9047
3.3534,-11.7359
3.3539,-11.1255
3.3544,-8.9891
3.3549,-7.7683
3.3554,-5.9372
3.3559,-2.5800
3.3564,-1.0541
3.3569,-2.5800
3.3574,-3.8008
3.3579,-1.9697
3.3584,-0.1385
3.3589,-0.7489
3.3594,-0.7489
3.3599,1.6927
3.3604,2.9135
3.3609,0.1667
3.3614,-3.4956
3.3619,-3.1904
3.3624,-2.2748
3.3629,-3.1904
3.3634,-3.1904
3.3639,-0.1385
3.3644,1.9979
3.3649,-0.1385
3.3654,-3.8008
3.3659,-5.0216
3.3664,-5.0216
3.3669,-6.8528
3.3674,-6.5476
3.3679,-2.8852
3.3684,-1.3593
3.3689,-4.7164
3.3694,-7.4632
3.3699,-4.4112
3.3704,-1.6645
3.3709,-4.7164
3.3714,-6.2424
3.3719,2.6083
3.3724,16.3420
3.3729,18.4784
3.3734,6.5758
3.3739,-5.0216
3.3744,-6.5476
3.3749,-1.6645
3.3754,1.6927
3.3759,1.9979
3.3764,1.0823
3.3769,0.4719
3.3774,-0.1385
3.3779,-1.0541
3.3784,-1.6645
3.3789,-1.6645
3.3794,-0.4437
3.3799,0.7771
3.3804,0.7771
3.3809,-1.0541
3.3814,-2.5800
3.3819,-2.5800
3.3824,-2.2748
3.3829,-2.2748
3.3834,-0.7489
3.3839,1.6927
3.3844,2.9135
3.3849,1.6927
3.3854,0.1667
3.3859,-0.4437
3.3864,-1.0541
3.3869,-0.1385
3.3874,2.9135
3.3879,6.5758
3.3884,7.7966
3.3889,7.1862
3.3894,7.7966
3.3899,9.3225
3.3904,9.9329
3.3909,11.4589
3.3914,15.7316
3.3919,20.0043
3.3924,19.3940
3.3929,16.3420
3.3934,16.0368
3.3939,17.5628
3.3944,17.5628
3.3949,16.3420
3.3954,18.4784
3.3959,21.5303
3.3964,20.9199
3.3969,17.5628
3.3974,16.9524
3.3979,18.4784
3.3984,18.4784
3.3989,18.1732
3.3994,21.2251
3.3999,25.8030
3.4004,25.4978
3.4009,21.5303
3.4014,20.3095
3.4019,22.4459
3.4024,23.0563
3.4029,22.1407
3.4034,24.8875
3.4039,30.3810
3.4044,33.1277
3.4049,31.2965
3.4054,29.4654
3.4059,29.4654
3.4064,29.1602
3.4069,29.4654
3.4074,31.9069
3.4079,35.2641
3.4084,34.9589
3.4089,32.8225
3.4094,32.2121
3.4099,32.5173
3.4104,30.6861
3.4109,28.8550
3.4114,30.3810
3.4119,32.8225
3.4124,31.2965
3.4129,27.0238
3.4134,26.1082
3.4139,27.3290
3.4144,26.4134
3.4149,24.8875
3.4154,26.4134
3.4159,29.7706
3.4164,28.8550
3.4169,24.8875
3.4174,23.3615
3.4179,24.8875
3.4184,25.1926
3.4189,24.5823
3.4194,25.4978
3.4199,28.2446
3.4204,28.2446
3.4209,25.8030
3.4214,24.8875
3.4219,26.1082
3.4224,26.4134
3.4229,26.7186
3.4234,28.8550
3.4239,31.6017
3.4244,31.9069
3.4249,30.3810
3.4254,28.8550
3.4259,27.0238
3.4264,24.5823
3.4269,24.5823
3.4274,27.6342
3.4279,28.2446
3.4284,23.9719
3.4289,19.6991
3.4294,19.6991
3.4299,19.3940
3.4304,16.6472
3.4309,15.7316
3.4314,19.3940
3.4319,20.6147
3.4324,16.0368
3.4329,13.2901
3.4334,15.4264
3.4339,15.4264
3.4344,9.6277
3.4349,9.9329
3.4354,22.7511
3.4359,34.0433
3.4364,27.6342
3.4369,10.5433
3.4374,3.5238
3.4379,8.4070
3.4384,11.4589
3.4389,8.4070
3.4394,8.4070
3.4399,13.2901
3.4404,13.9005
3.4409,8.4070
3.4414,5.6602
3.4419,9.0173
3.4424,11.1537
3.4429,8.1018
3.4434,6.2706
3.4439,9.3225
3.4444,12.3745
3.4449,10.5433
3.4454,5.9654
3.4459,2.6083
3.4464,1.3875
3.4469,1.3875
3.4474,3.2186
3.4479,4.7446
3.4484,2.9135
3.4489,-0.1385
3.4494,-0.7489
3.4499,-0.4437
3.4504,-2.2748
3.4509,-3.4956
3.4514,-0.4437
3.4519,3.2186
3.4524,1.9979
3.4529,-2.2748
3.4534,-4.1060
3.4539,-2.2748
3.4544,-1.6645
3.4549,-1.6645
3.4554,0.7771
3.4559,4.4394
3.4564,3.2186
3.4569,-0.7489
3.4574,-2.2748
3.4579,0.1667
3.4584,1.0823
3.4589,-0.4437
3.4594,0.1667
3.4599,3.2186
3.4604,2.6083
3.4609,-2.2748
3.4614,-5.3268
3.4619,-3.8008
3.4624,-3.8008
3.4629,-7.1580
3.4634,-8.9891
3.4639,-5.6320
3.4644,-3.1904
3.4649,-5.6320
3.4654,-9.9047
3.4659,-11.7359
3.4664,-13.2618
3.4669,-16.0086
3.4674,-16.6190
3.4679,-13.5670
3.4684,-11.1255
3.4689,-12.9567
3.4694,-16.0086
3.4699,-16.6190
3.4704,-16.0086
3.4709,-16.6190
3.4714,-16.0086
3.4719,-12.6515
3.4724,-10.8203
3.4729,-13.2618
3.4734,-16.6190
3.4739,-17.5346
3.4744,-17.2294
3.4749,-17.8398
3.4754,-17.5346
3.4759,-14.4826
3.4764,-12.6515
3.4769,-15.7034
3.4774,-19.3657
3.4779,-19.6709
3.4784,-19.3657
3.4789,-21.1969
3.4794,-22.4177
3.4799,-19.9761
3.4804,-17.8398
3.4809,-20.8917
3.4814,-25.7748
3.4819,-26.9956
3.4824,-26.0800
3.4829,-26.6904
3.4834,-26.9956
3.4839,-23.6385
3.4844,-19.6709
3.4849,-21.1969
3.4854,-25.7748
3.4859,-26.9956
3.4864,-26.0800
3.4869,-26.3852
3.4874,-26.9956
3.4879,-23.6385
3.4884,-19.0605
3.4889,-19.0605
3.4894,-23.0281
3.4899,-24.8592
3.4904,-23.6385
3.4909,-23.6385
3.4914,-24.2488
3.4919,-22.4177
3.4924,-19.6709
3.4929,-20.2813
3.4934,-22.7229
3.4939,-23.0281
3.4944,-22.7229
3.4949,-26.0800
3.4954,-28.5216
3.4959,-24.8592
3.4964,-20.5865
3.4969,-25.4696
3.4974,-34.3203
3.4979,-31.2683
3.4984,-16.0086
3.4989,-6.2424
3.4994,-13.5670
3.4999,-27.9112
3.5004,-33.4047
3.5009,-30.3527
3.5014,-28.2164
3.5019,-30.6579
3.5024,-32.4891
3.5029,-30.6579
3.5034,-26.9956
3.5039,-23.9437
3.5044,-21.8073
3.5049,-20.8917
3.5054,-21.8073
3.5059,-23.3333
3.5064,-24.8592
3.5069,-24.5540
3.5074,-22.4177
3.5079,-19.6709
3.5084,-18.4502
3.5089,-19.6709
3.5094,-20.2813
3.5099,-19.6709
3.5104,-19.6709
3.5109,-20.5865
3.5114,-19.9761
3.5119,-16.9242
3.5124,-15.7034
3.5129,-18.4502
3.5134,-21.5021
3.5139,-21.5021
3.5144,-20.5865
3.5149,-21.5021
3.5154,-21.1969
3.5159,-18.1450
3.5164,-15.7034
3.5169,-17.5346
3.5174,-20.2813
3.5179,-19.6709
3.5184,-18.1450
3.5189,-18.7553
3.5194,-18.1450
3.5199,-14.1774
3.5204,-11.1255
3.5209,-12.9567
3.5214,-15.7034
3.5219,-14.4826
3.5224,-11.7359
3.5229,-10.5151
3.5234,-10.2099
3.5239,-6.8528
3.5244,-3.4956
3.5249,-3.4956
3.5254,-5.9372
3.5259,-7.1580
3.5264,-7.1580
3.5269,-6.8528
3.5274,-5.3268
3.5279,-2.8852
3.5284,-2.5800
3.5289,-5.0216
3.5294,-7.1580
3.5299,-6.2424
3.5304,-5.9372
3.5309,-7.1580
3.5314,-7.1580
3.5319,-3.8008
3.5324,-2.2748
3.5329,-4.7164
3.5334,-7.1580
3.5339,-5.9372
3.5344,-4.4112
3.5349,-4.7164
3.5354,-3.4956
3.5359,0.1667
3.5364,2.3031
3.5369,0.1667
3.5374,-2.2748
3.5379,-0.1385
3.5384,2.9135
3.5389,3.5238
3.5394,4.4394
3.5399,8.1018
3.5404,10.5433
3.5409,9.0173
3.5414,7.7966
3.5419,9.3225
3.5424,10.8485
3.5429,10.2381
3.5434,10.8485
3.5439,15.1212
3.5444,18.7836
3.5449,17.2576
3.5454,13.2901
3.5459,11.1537
3.5464,11.1537
3.5469,11.4589
3.5474,13.2901
3.5479,15.7316
3.5484,15.4264
3.5489,12.6797
3.5494,12.3745
3.5499,14.2056
3.5504,14.2056
3.5509,12.3745
3.5514,14.2056
3.5519,19.6991
3.5524,21.8355
3.5529,18.4784
3.5534,16.3420
3.5539,18.4784
3.5544,20.3095
3.5549,20.0043
3.5554,21.8355
3.5559,26.1082
3.5564,27.3290
3.5569,24.5823
3.5574,23.9719
3.5579,26.7186
3.5584,27.0238
3.5589,25.1926
3.5594,27.9394
3.5599,34.0433
3.5604,32.8225
3.5609,25.4978
3.5614,26.4134
3.5619,38.6212
3.5624,45.6407
3.5629,36.1796
3.5634,23.3615
3.5639,22.1407
3.5644,28.5498
3.5649,28.8550
3.5654,22.1407
3.5659,18.1732
3.5664,20.0043
3.5669,22.4459
3.5674,22.7511
3.5679,23.0563
3.5684,23.9719
3.5689,23.6667
3.5694,23.0563
3.5699,23.3615
3.5704,23.3615
3.5709,23.0563
3.5714,25.1926
3.5719,28.8550
3.5724,29.4654
3.5729,26.1082
3.5734,23.9719
3.5739,25.4978
3.5744,27.0238
3.5749,26.4134
3.5754,27.3290
3.5759,29.7706
3.5764,30.3810
3.5769,27.0238
3.5774,23.6667
3.5779,23.3615
3.5784,23.3615
3.5789,22.4459
3.5794,22.4459
3.5799,23.9719
3.5804,23.6667
3.5809,20.6147
3.5814,17.5628
3.5819,16.3420
3.5824,15.4264
3.5829,14.8160
3.5834,16.3420
3.5839,19.3940
3.5844,20.6147
3.5849,19.0888
3.5854,16.9524
3.5859,14.8160
3.5864,12.3745
3.5869,11.7641
3.5874,14.2056
3.5879,16.6472
3.5884,16.9524
3.5889,15.4264
3.5894,15.1212
3.5899,14.5108
3.5904,11.4589
3.5909,9.6277
3.5914,12.0693
3.5919,15.4264
3.5924,14.5108
3.5929,10.2381
3.5934,7.4914
3.5939,6.8810
3.5944,5.3550
3.5949,3.8290
3.5954,5.0498
3.5959,6.8810
3.5964,4.7446
3.5969,0.1667
3.5974,-1.9697
3.5979,-1.6645
3.5984,-2.2748
3.5989,-3.8008
3.5994,-3.1904
3.5999,-1.3593
3.6004,-2.5800
3.6009,-6.2424
3.6014,-8.3787
3.6019,-8.0735
3.6024,-8.0735
3.6029,-8.6839
3.6034,-7.7683
3.6039,-4.7164
3.6044,-2.8852
3.6049,-3.4956
3.6054,-5.3268
3.6059,-7.7683
3.6064,-8.9891
3.6069,-7.1580
3.6074,-3.4956
3.6079,-2.2748
3.6084,-4.4112
3.6089,-6.5476
3.6094,-5.6320
3.6099,-5.6320
3.6104,-8.3787
3.6109,-9.9047
3.6114,-7.4632
3.6119,-5.9372
3.6124,-8.9891
3.6129,-12.9567
3.6134,-13.2618
3.6139,-12.3463
3.6144,-14.1774
3.6149,-15.7034
3.6154,-13.2618
3.6159,-10.5151
3.6164,-12.6515
3.6169,-16.6190
3.6174,-17.5346
3.6179,-17.8398
3.6184,-20.2813
3.6189,-20.8917
3.6194,-16.3138
3.6199,-13.2618
3.6204,-15.7034
3.6209,-19.6709
3.6214,-18.7553
3.6219,-16.6190
3.6224,-17.8398
3.6229,-18.7553
3.6234,-14.4826
3.6239,-10.2099
3.6244,-12.3463
3.6249,-15.0930
3.6254,-14.1774
3.6259,-14.7878
3.6264,-20.8917
3.6269,-21.5021
3.6274,-7.4632
3.6279,7.1862
3.6284,2.6083
3.6289,-17.2294
3.6294,-30.3527
3.6299,-28.8268
3.6304,-24.8592
3.6309,-26.0800
3.6314,-26.0800
3.6319,-22.4177
3.6324,-21.5021
3.6329,-26.3852
3.6334,-30.0475
3.6339,-28.2164
3.6344,-26.0800
3.6349,-26.3852
3.6354,-25.1644
3.6359,-21.8073
3.6364,-20.8917
3.6369,-23.3333
3.6374,-23.9437
3.6379,-21.5021
3.6384,-19.6709
3.6389,-19.0605
3.6394,-16.3138
3.6399,-12.3463
3.6404,-12.3463
3.6409,-15.3982
3.6414,-15.3982
3.6419,-12.3463
3.6424,-11.4307
3.6429,-12.6515
3.6434,-10.5151
3.6439,-5.3268
3.6444,-4.4112
3.6449,-8.9891
3.6454,-11.7359
3.6459,-9.5995
3.6464,-8.0735
3.6469,-9.9047
3.6474,-9.5995
3.6479,-5.6320
3.6484,-3.1904
3.6489,-5.0216
3.6494,-6.8528
3.6499,-5.3268
3.6504,-5.0216
3.6509,-7.4632
3.6514,-7.1580
3.6519,-2.2748
3.6524,1.3875
3.6529,-0.1385
3.6534,-3.1904
3.6539,-2.2748
3.6544,0.1667
3.6549,0.1667
3.6554,1.3875
3.6558,5.6602
3.6563,9.0173
3.6568,7.7966
3.6573,5.6602
3.6578,6.2706
3.6583,7.7966
3.6588,6.8810
3.6593,7.4914
3.6598,11.7641
3.6603,14.2056
3.6608,11.1537
3.6613,6.8810
3.6618,7.4914
3.6623,9.0173
3.6628,7.4914
3.6633,5.9654
3.6638,9.9329
3.6643,15.7316
3.6648,15.4264
3.6653,9.9329
3.6658,6.2706
3.6663,6.2706
3.6668,5.9654
3.6673,5.6602
3.6678,8.4070
3.6683,12.0693
3.6688,10.5433
3.6693,5.6602
3.6698,3.5238
3.6703,5.3550
3.6708,6.8810
3.6713,7.1862
3.6718,8.7121
3.6723,11.4589
3.6728,12.3745
3.6733,11.4589
3.6738,10.5433
3.6743,10.2381
3.6748,9.6277
3.6753,10.5433
3.6758,13.2901
3.6763,14.5108
3.6768,11.7641
3.6773,8.1018
3.6778,8.1018
3.6783,9.3225
3.6788,8.1018
3.6793,6.5758
3.6798,8.1018
3.6803,10.2381
3.6808,8.4070
3.6813,4.4394
3.6818,3.2186
3.6823,3.2186
3.6828,2.3031
3.6833,1.9979
3.6838,5.6602
3.6843,9.3225
3.6848,7.7966
3.6853,3.2186
3.6858,2.6083
3.6863,4.7446
3.6868,4.7446
3.6873,3.8290
3.6878,6.5758
3.6883,11.1537
3.6888,10.5433
3.6893,6.2706
3.6898,7.7966
3.6903,17.8680
3.6908,26.1082
3.6913,23.9719
3.6918,14.5108
3.6923,7.7966
3.6928,7.1862
3.6933,8.7121
3.6938,9.0173
3.6943,7.4914
3.6948,6.8810
3.6953,8.4070
3.6958,10.8485
3.6963,10.8485
3.6968,7.7966
3.6973,5.0498
3.6978,5.0498
3.6983,5.6602
3.6988,4.7446
3.6993,4.4394
3.6998,6.5758
3.7003,8.1018
3.7008,5.0498
3.7013,0.7771
3.7018,-0.4437
3.7023,-0.1385
3.7028,-1.9697
3.7033,-6.2424
3.7038,-9.5995
3.7043,-12.3463
3.7048,-16.3138
3.7053,-21.5021
3.7058,-25.7748
3.7063,-30.0475
3.7068,-34.6255
3.7073,-38.5930
3.7078,-41.6449
3.7083,-45.6125
3.7088,-50.4956
3.7093,-54.1579
3.7098,-55.6839
3.7103,-58.1254
3.7108,-62.3981
3.7113,-65.4501
3.7118,-65.4501
3.7123,-66.0605
3.7128,-69.4176
3.7133,-72.7748
3.7138,-73.9955
3.7143,-74.3007
3.7148,-74.6059
3.7153,-72.1644
3.7158,-66.6709
3.7163,-62.7033
3.7168,-61.7878
3.7173,-59.9566
3.7178,-54.1579
3.7183,-47.4436
3.7188,-42.2553
3.7193,-35.2358
3.7198,-26.0800
3.7203,-18.4502
3.7208,-14.7878
3.7213,-10.8203
3.7218,-2.8852
3.7223,5.0498
3.7228,10.8485
3.7233,17.2576
3.7238,27.3290
3.7243,37.0952
3.7248,42.2835
3.7253,44.4199
3.7258,48.0822
3.7263,52.9653
3.7268,57.2381
3.7273,61.2056
3.7278,66.3939
3.7283,70.9718
3.7288,73.1082
3.7293,73.7186
3.7298,74.6341
3.7303,75.2445
3.7308,75.5497
3.7313,77.6861
3.7318,80.1276
3.7323,80.1276
3.7328,77.3809
3.7333,75.8549
3.7338,76.4653
3.7343,76.1601
3.7348,75.2445
3.7353,75.8549
3.7358,77.9913
3.7363,77.0757
3.7368,73.7186
3.7373,71.8874
3.7378,72.8030
3.7383,71.8874
3.7388,69.4458
3.7393,70.0562
3.7398,73.1082
3.7403,72.4978
3.7408,66.6991
3.7413,61.5108
3.7418,60.5952
3.7423,59.0692
3.7428,55.7121
3.7433,54.1861
3.7438,55.1017
3.7443,53.5757
3.7448,47.1666
3.7453,40.1472
3.7458,34.9589
3.7463,29.7706
3.7468,25.1926
3.7473,23.6667
3.7478,23.9719
3.7483,20.3095
3.7488,14.5108
3.7493,12.0693
3.7498,11.1537
3.7503,5.9654
3.7508,0.1667
3.7513,0.7771
3.7518,3.8290
3.7523,-1.6645
3.7528,-12.6515
3.7533,-12.9567
3.7538,-1.6645
3.7543,2.3031
3.7548,-10.5151
3.7553,-27.9112
3.7558,-34.6255
3.7563,-34.3203
3.7568,-37.0670
3.7573,-43.1709
3.7578,-46.5280
3.7583,-48.6644
3.7588,-52.0215
3.7593,-54.4631
3.7598,-55.3787
3.7603,-57.8202
3.7608,-63.6189
3.7613,-67.8916
3.7618,-67.8916
3.7623,-66.9761
3.7628,-68.1968
3.7633,-68.8072
3.7638,-67.5865
3.7643,-67.5865
3.7648,-70.3332
3.7653,-72.4696
3.7658,-72.4696
3.7663,-72.4696
3.7668,-72.7748
3.7673,-70.3332
3.7678,-66.0605
3.7683,-63.9241
3.7688,-64.2293
3.7693,-62.7033
3.7698,-58.4306
3.7703,-54.7683
3.7708,-51.1060
3.7713,-44.6969
3.7718,-36.7618
3.7723,-32.1839
3.7728,-30.6579
3.7733,-26.9956
3.7738,-21.1969
3.7743,-16.9242
3.7748,-13.5670
3.7753,-7.1580
3.7758,0.1667
3.7763,3.5238
3.7768,2.9135
3.7773,3.8290
3.7778,6.8810
3.7783,8.4070
3.7788,9.0173
3.7793,11.7641
3.7798,15.4264
3.7803,16.0368
3.7808,13.2901
3.7813,11.4589
3.7818,12.3745
3.7823,12.9849
3.7828,13.5953
3.7833,16.3420
3.7838,20.0043
3.7843,20.6147
3.7848,18.4784
3.7853,16.6472
3.7858,16.0368
3.7863,15.4264
3.7868,16.3420
3.7873,19.0888
3.7878,21.5303
3.7883,20.3095
3.7888,18.4784
3.7893,18.4784
3.7898,19.3940
3.7903,18.1732
3.7908,17.5628
3.7913,20.0043
3.7918,22.1407
3.7923,20.6147
3.7928,17.5628
3.7933,16.6472
3.7938,16.0368
3.7943,13.2901
3.7948,11.4589
3.7953,13.5953
3.7958,15.4264
3.7963,12.0693
3.7968,7.1862
3.7973,5.6602
3.7978,6.2706
3.7983,5.0498
3.7988,3.5238
3.7993,5.0498
3.7998,6.8810
3.8003,4.7446
3.8008,0.7771
3.8013,0.4719
3.8018,2.3031
3.8023,1.9979
3.8028,0.4719
3.8033,2.3031
3.8038,6.5758
3.8043,7.4914
3.8048,3.8290
3.8053,1.6927
3.8058,2.9135
3.8063,3.8290
3.8068,2.6083
3.8073,2.3031
3.8078,4.7446
3.8083,7.4914
3.8088,6.8810
3.8093,4.4394
3.8098,1.9979
3.8103,1.0823
3.8108,1.9979
3.8113,3.5238
3.8118,4.1342
3.8123,1.9979
3.8128,-1.9697
3.8133,-5.0216
3.8138,-5.3268
3.8143,-5.0216
3.8148,-5.3268
3.8153,-5.0216
3.8158,-2.5800
3.8163,-0.7489
3.8168,-4.1060
3.8173,-10.8203
